-1.9805026250528,-2.38903642275858
-1.92800264414841,-2.3785677134216
-1.90939885872244,-2.37434233314872
-1.94770203040155,-2.41858046083293
-1.98253727418707,-2.42998132894295
-1.96936698197458,-2.36085219842972
-1.95352080065709,-2.2971057067522
-2.03796214409517,-2.35965814250447
-2.13771824536899,-2.46247774944411
-2.22865795069854,-2.55445285670361
-2.2908564429748,-2.610477099609
-2.24266422539757,-2.55275322808527
-2.1693362682101,-2.48010119149914
-2.13154359535201,-2.46242095653889
-2.12298716827153,-2.48224393938687
-2.14229662789221,-2.53071204438751
-2.14488518404233,-2.56904259588445
-2.04112509835883,-2.48720575941279
-1.92498715047811,-2.41789080677643
-1.86631994447353,-2.40019479004694
-1.8723578127235,-2.43113222879077
-1.92677144559306,-2.48639403545432
-1.99233572389872,-2.52204736606998
-1.99736094546509,-2.46805461779558
-1.99787883766515,-2.40308682381028
-2.03099314384818,-2.40990550480119
-2.06187775525303,-2.43594847662061
-2.08941916030247,-2.46997717645115
-2.0933820548703,-2.47191343219492
-2.02997969647771,-2.37448753505241
-1.99539622465285,-2.29090633407801
-2.04139790384601,-2.29374238360587
-2.11024398201105,-2.32313805658529
-2.18822908373114,-2.3436933118391
-2.20959966386414,-2.30416836241861
-2.16970573501989,-2.20359521607227
-2.11145831303384,-2.12408449130858
-2.12466373844374,-2.16641795818333
-2.12966481475399,-2.246952792579
-2.16673826745064,-2.35242169377031
-2.15328925242057,-2.41971859730738
-2.05700477687978,-2.36608453996718
-1.9814809775732,-2.32017987765953
-1.96972695535523,-2.33965146941867
-1.98384137929824,-2.38853109680548
-2.02258776428535,-2.4382198500244
-2.02837042673226,-2.42999859797084
-1.9339955642408,-2.3189722236894
-1.83874592758108,-2.22470775334549
-1.78005592145866,-2.19489190233859
-1.77395125997368,-2.22325290356272
-1.80824633822822,-2.29519169640908
-1.84539615657143,-2.37333628049203
-1.79692045560575,-2.3397406991243
-1.7475394065934,-2.30612932968704
-1.80097643944419,-2.35798794451954
-1.92320881241112,-2.46327480144176
-2.088588541109,-2.59792242135923
-2.20469683102879,-2.66721884065646
-2.20180815711527,-2.60414336427958
-2.1659825270537,-2.51921487883568
-2.17791104494556,-2.51098717901595
-2.21379717788997,-2.52218924010656
-2.25383017517719,-2.56141860715426
-2.267372502137,-2.55443430860424
-2.18578565469747,-2.43861457106873
-2.08800718875789,-2.30762366392892
-2.04644212931348,-2.27138614235563
-2.04275072779846,-2.30129309417185
-2.087815892268,-2.38539806886673
-2.11091101075243,-2.42700244501825
-2.05905803816614,-2.35310755339927
-2.00134497090244,-2.25476708212691
-1.98509001154374,-2.25215101305271
-2.00041098832343,-2.3164987845189
-2.04270497039652,-2.4207861527302
-2.0727968807416,-2.46319311599861
-2.00275643435719,-2.40144315775874
-1.92189118967355,-2.32474106944386
-1.86197384887553,-2.29470222258782
-1.81757187783082,-2.2946071409225
-1.78869455750786,-2.29910037201056
-1.78051406402942,-2.29417627468249
-1.73165293157667,-2.20630324787851
-1.7138438838782,-2.1197409683119
-1.79405356606959,-2.15048841116679
-1.90856321000872,-2.21731308602014
-2.0618665891906,-2.31879795086092
-2.17713053912006,-2.37806006398926
-2.18408144163211,-2.32660049626677
-2.42419730374273,-2.26207184342838
-2.40439923922228,-2.24224375908687
-2.41271108307109,-2.25800396358469
-2.49205543714293,-2.34003961099734
-2.52934767220852,-2.38341511202558
-2.49957525510838,-2.37356668320472
-2.44227953326034,-2.33293131472785
-2.4927844552743,-2.37648754036501
-2.57201508866737,-2.44381875122882
-2.63742001643497,-2.49779553730162
-2.68146990992027,-2.55054790117089
-2.60423037277033,-2.49562819359624
-2.51205905998558,-2.42199757382438
-2.47456786121098,-2.39297904404447
-2.48883295123191,-2.39510358808143
-2.51986739870688,-2.42181634892094
-2.53603069944416,-2.42030380606079
-2.43539848569749,-2.30819775904953
-2.34868046684436,-2.19969372838893
-2.32919355042866,-2.15489850429723
-2.38484675352687,-2.18224158001496
-2.4946068933599,-2.24567542585094
-2.56616082513146,-2.31018512070191
-2.52622198747873,-2.29100640256392
-2.45377455856352,-2.27060843449747
-2.4517373306825,-2.29873018037849
-2.47717928732353,-2.32642325212034
-2.50302906329155,-2.3368559303548
-2.51264368362916,-2.32393734039558
-2.42635692474659,-2.22031378453723
-2.37052577532944,-2.15130776282303
-2.40429650313689,-2.17918564664256
-2.47281245841686,-2.25675088176216
-2.56995267425739,-2.38773391459055
-2.60892453073911,-2.46812533968048
-2.55911685643747,-2.45875790552733
-2.4889488850154,-2.39258524959232
-2.51119485856088,-2.3963980683008
-2.52945091791439,-2.39952059261086
-2.5518932596299,-2.41516198398302
-2.4938607721536,-2.36970407743307
-2.34468168801282,-2.2167696123562
-2.2420175832071,-2.07755795728273
-2.24088245939378,-1.99875488288575
-2.2925132688816,-1.96348476144866
-2.36200509231062,-1.99363601265896
-2.40414726333525,-2.0411873589089
-2.32266721857039,-2.01069693372306
-2.24306232103423,-1.98542057604946
-2.22735475155617,-2.02037576688929
-2.25906841566568,-2.08940640804565
-2.33881675089952,-2.18437223496579
-2.4052390773589,-2.25203868387816
-2.34255495884316,-2.19405902083685
-2.2797544818084,-2.12854036971692
-2.31698704907685,-2.16889235118802
-2.40632107777874,-2.25777578657067
-2.54491687861765,-2.39655520885539
-2.64101137265065,-2.50177572165045
-2.61906340348809,-2.49973423385426
-2.57363679438749,-2.46492552026217
-2.59048975492649,-2.48215931802191
-2.61522387349003,-2.51198121832861
-2.64641076928742,-2.54450874203974
-2.63007670378655,-2.53321537301636
-2.49762582183096,-2.419298787258
-2.36281515630116,-2.2926765587326
-2.31377782266546,-2.2541133850587
-2.33013535738444,-2.26776216955114
-2.40735874459992,-2.33616497290208
-2.47860408482507,-2.39502929443993
-2.45380337564886,-2.36096727074909
-2.4283108967577,-2.31984488680522
-2.46058025467405,-2.34492739968719
-2.51878981002489,-2.40103517910601
-2.58255764275461,-2.477065084581
-2.56641037810638,-2.49812315799139
-2.42230956512716,-2.40420861022186
-2.28873890383054,-2.30877987929618
-2.20112985197113,-2.27129270918184
-2.15553295337374,-2.27548761233426
-2.12784112111508,-2.29280409169311
-2.11834428466095,-2.30083830170896
-2.04512842515896,-2.22103156077185
-1.99800810140069,-2.14422418934483
-2.08764044350475,-2.1518059418122
-2.20205117395341,-2.1810786421107
-2.36731430296376,-2.26759268468148
-2.4667343370597,-2.32631916151522
-2.43269858347418,-2.27495950723508
-2.06186832487612,-2.2952208205531
-2.04939959614015,-2.27897387286693
-2.05937490428989,-2.29290305162402
-2.12433602690873,-2.36286863027349
-2.16361726872355,-2.40150865265436
-2.14075041872717,-2.35708638099713
-2.10329591310127,-2.29317578662262
-2.14920079065012,-2.33374531343404
-2.22155875766124,-2.40355501734544
-2.28086340993514,-2.46313197391836
-2.32792244193088,-2.50889421779811
-2.27231904289584,-2.43577455440974
-2.20174906988949,-2.34730885582112
-2.16540953102855,-2.3096851313088
-2.1702718926709,-2.31557238574625
-2.19457033772784,-2.34248694028521
-2.20383486120345,-2.35738628699159
-2.10426394906371,-2.25891759049963
-2.00999311761229,-2.1810164004386
-1.9801828190296,-2.17017415875364
-2.02339322243721,-2.22656876149006
-2.11155763058435,-2.32263338881473
-2.18823622568032,-2.39462004249981
-2.17508324436801,-2.3574473867451
-2.14268434238533,-2.28691472111495
-2.15806939528333,-2.27554152075439
-2.17450113078144,-2.2800800937135
-2.17576685448632,-2.271844101619
-2.15284456363181,-2.24097326754305
-2.03757400717402,-2.11191230173776
-1.96702245189287,-2.02253750050625
-1.97978903861188,-2.0382397015238
-2.01497338930088,-2.09181884175353
-2.06937529998727,-2.18770429537928
-2.0684737544627,-2.22869012126813
-1.99801618833127,-2.19383263766327
-1.94524674912631,-2.16610021663478
-2.0080199339192,-2.23820735676452
-2.08154443859899,-2.33453255363677
-2.16747002099485,-2.45306249491539
-2.19485061150975,-2.51279823481401
-2.12905858451999,-2.47073386768559
-2.08285143828838,-2.39608845870716
-2.09403900133813,-2.36166468034444
-2.13109729408208,-2.33845934459505
-2.17168348358824,-2.34115792590136
-2.15785542039409,-2.3360467473597
-2.0433762845987,-2.24538826602749
-1.9237549493681,-2.15588732853802
-1.85700249859252,-2.1285988296277
-1.83687126529315,-2.12668363470028
-1.85758035661336,-2.16963863420196
-1.8921107912166,-2.21497220686774
-1.81693361764246,-2.15876443369813
-1.76311585684395,-2.11475180100662
-1.81499279458577,-2.17914806833853
-1.92754994587758,-2.30678083778482
-2.09261709662929,-2.47865503446076
-2.2158526174025,-2.59181607032789
-2.23366495388277,-2.55984002434094
-2.21574744923077,-2.49081683824935
-2.23624839382844,-2.49035438104502
-2.25394023816346,-2.51499220302797
-2.27044862397345,-2.55833341591216
-2.22269409219108,-2.5593398813544
-2.08894514569806,-2.45692726320231
-1.94252885830337,-2.32741257102835
-1.89135842904441,-2.2797781864638
-1.91228731611417,-2.28610509120402
-2.01831990063255,-2.35177763998431
-2.11422765456809,-2.39661100257037
-2.10523182665047,-2.34427243977955
-2.07582409756312,-2.27613194001072
-2.0972740473215,-2.27922223503733
-2.14945846759921,-2.3220349213858
-2.21002771592809,-2.38025227072071
-2.23180055711973,-2.3919865045664
-2.13153280894323,-2.3069234169195
-2.04503651059893,-2.21154293578604
-1.99884237139889,-2.15110636508698
-2.00569695700582,-2.12853290559788
-2.03979025726233,-2.11600974286632
-2.0911494359398,-2.12189042728035
-2.07727225095872,-2.0633050870922
-2.05712589314802,-2.01586875707962
-2.0873202786008,-2.07698358730731
-2.10528218319193,-2.16879120187876
-2.17518667123875,-2.30160674396426
-2.21540154536771,-2.38113193281972
-2.17674208412609,-2.33060115829558
-2.03128314806996,-2.50248981969428
-1.96731646568488,-2.4683778505779
-1.93521541034914,-2.45874232133838
-1.97658110503102,-2.52198931461917
-2.00985650452054,-2.5749067469996
-2.01554831018172,-2.58125097175093
-2.01032981898788,-2.55847323953645
-2.10906754559596,-2.6431419332234
-2.2164233601147,-2.75044455108574
-2.3076782836782,-2.83697840798084
-2.36884512701538,-2.8953637326993
-2.31242026482713,-2.81459059211457
-2.22718225900879,-2.71948344380289
-2.19546287186117,-2.67649348324998
-2.1997856173458,-2.68055123008696
-2.22881230990955,-2.71884766957488
-2.24414770050508,-2.73380988099781
-2.15924501210638,-2.63602427875825
-2.08473590110769,-2.53519550542587
-2.05911988090832,-2.51060694317133
-2.10013736404951,-2.57032971936225
-2.17945485102048,-2.67838324277464
-2.24641019412663,-2.7633912719933
-2.22482342501615,-2.72480353680099
-2.18499476520662,-2.66236960710184
-2.19884797299264,-2.64765975726656
-2.23534652565698,-2.66995757384304
-2.27277863577878,-2.69023765860725
-2.2886693262673,-2.69070214849429
-2.21417068347044,-2.59183449215741
-2.14582941368357,-2.5144704874614
-2.15212621094649,-2.53510924142695
-2.18848087140728,-2.5912070751428
-2.26003660832433,-2.66285413118941
-2.30679646536177,-2.66105560923128
-2.27124092677136,-2.58704632762304
-2.20490808197637,-2.52670771608518
-2.19810868333757,-2.59019361849429
-2.20000764061658,-2.66823101147369
-2.22933237740247,-2.75736875752324
-2.21167248524381,-2.76274918886939
-2.1209631782691,-2.64674130508501
-2.06182459384296,-2.53630896981458
-2.08711343410612,-2.4723717063382
-2.14640595190372,-2.44729641202577
-2.21581810108315,-2.46353690580668
-2.24092545892326,-2.45866190443101
-2.16970894363424,-2.34409821674167
-2.07045241200217,-2.23910882709938
-2.01383735271395,-2.21619285881187
-1.97975795560366,-2.26008202877424
-1.99000165224748,-2.357955745447
-2.01379915907712,-2.42707408997636
-1.94841415607634,-2.35285727169466
-1.90043567346016,-2.28398282899235
-1.96903796519166,-2.33014556329618
-2.08838949188768,-2.45472246154259
-2.2459560254075,-2.64514815168335
-2.35741881580849,-2.79891296563614
-2.35817816536646,-2.80381596395665
-2.31837144021416,-2.77510588283462
-2.339752215534,-2.79118532874923
-2.35763409949736,-2.8336281139435
-2.38545216675706,-2.87931574977665
-2.37284685236495,-2.89961685434329
-2.25013557986432,-2.79015477505322
-2.10660463375497,-2.66669113208638
-2.03579498575074,-2.62724385920987
-2.02719657035022,-2.6393544440269
-2.07514791405356,-2.70916979293733
-2.11540962795929,-2.76601795298742
-2.08503452067841,-2.72337643808234
-2.05135779406417,-2.65822063255718
-2.06271643165404,-2.66634851926144
-2.08818387888397,-2.70189712897036
-2.13581003388234,-2.76082246623477
-2.15728105435457,-2.78042589666513
-2.09963876425303,-2.68742861834314
-2.02530426050577,-2.59740086195583
-1.97576167491423,-2.55024847998157
-1.95507045445185,-2.5297488053119
-1.93486138969868,-2.53155364849859
-1.9237662918059,-2.52371760023448
-1.87544204276673,-2.44336478211385
-1.84221688078174,-2.37783592025362
-1.93085913641814,-2.46170947247335
-2.04071355116257,-2.58687092166932
-2.17311625382713,-2.72983516188779
-2.2219281316127,-2.80664847125043
-2.14619825162952,-2.73572827441315
-2.27304659548545,-2.33973523263467
-2.24998768331043,-2.2794209667721
-2.24767893798953,-2.25270957085435
-2.3124048000597,-2.29447873817396
-2.3647728819573,-2.29773582824831
-2.36953771146054,-2.24930435484863
-2.34444872256087,-2.19869149785582
-2.41077677933739,-2.29670763811098
-2.49065265857705,-2.43620264801694
-2.55171997662794,-2.54597869971419
-2.60269158262513,-2.62081475787475
-2.52572836684708,-2.57388691808618
-2.43801551660517,-2.48760780427284
-2.39058234620867,-2.4534273371853
-2.3924783865896,-2.44417593392275
-2.4271567572512,-2.4600245369368
-2.43955152657119,-2.46762107153999
-2.33118862521717,-2.34794851372357
-2.22797790500658,-2.23499805289053
-2.18991093773377,-2.18634517496219
-2.23799313368055,-2.21127592940435
-2.32307959858466,-2.29141092253074
-2.4104712738985,-2.37707950671181
-2.39413090807666,-2.3745977839188
-2.3642659819545,-2.36692323410834
-2.37974639616537,-2.39855720852912
-2.4201795396929,-2.42736123973201
-2.4541234461569,-2.43123171671797
-2.46122970266429,-2.39947274741065
-2.37220627605906,-2.28202182925109
-2.3113185210475,-2.19114206718165
-2.34665016450885,-2.19433957344806
-2.40481380015482,-2.24290507481711
-2.46856423605259,-2.32746295194562
-2.46528450826305,-2.37714275145117
-2.39096553500747,-2.3535963262966
-2.31789345491288,-2.31813955291971
-2.34330399709536,-2.37456059575236
-2.3870194829892,-2.42963692839923
-2.4505228210188,-2.49259925230686
-2.45896952473066,-2.50039927485105
-2.36471061442774,-2.41505418756711
-2.2784039941069,-2.34715207566653
-2.27259575453388,-2.35294913039828
-2.28926861969672,-2.38076074642318
-2.3306586769271,-2.42738767489578
-2.33353608566524,-2.41908484802913
-2.22670694303526,-2.3188908588078
-2.11880629085021,-2.2164630999312
-2.07541496992092,-2.17304453059368
-2.08223967557087,-2.18259059765532
-2.13885299259432,-2.22888810312329
-2.19291208380275,-2.27309043593313
-2.13716885759617,-2.20442792837466
-2.0817246046479,-2.11975119195746
-2.14454102980673,-2.13523372506055
-2.27025548160652,-2.21181339688345
-2.4509269635883,-2.35381409912844
-2.57385638067218,-2.47444095106758
-2.55335913734107,-2.5087805800087
-2.49227226165492,-2.50930710326025
-2.49229119416892,-2.55528903425906
-2.51566088914992,-2.59899576293123
-2.55993728469178,-2.64508767029337
-2.55168183248863,-2.63929159277165
-2.43967547246779,-2.53019783094329
-2.30633880124367,-2.40505388908472
-2.26932599381736,-2.35219194073912
-2.30853079353772,-2.35512015727023
-2.41218851739515,-2.38289605326656
-2.49676455887113,-2.37745078931446
-2.45969732973903,-2.28188702407568
-2.38450792103987,-2.19617449634124
-2.36978088892735,-2.19775986388125
-2.38816646406291,-2.25288630793801
-2.44431336765927,-2.34533910635494
-2.47287792796257,-2.39844367727401
-2.39626059911435,-2.34922328953126
-2.31637008889451,-2.29053518656906
-2.26666426111612,-2.26808689814638
-2.24117722813971,-2.26671216280806
-2.24052472751262,-2.27795630460187
-2.23018879311889,-2.29094514833334
-2.15248200247841,-2.23636712305747
-2.08486435919314,-2.18655151502733
-2.14820382792727,-2.25429419765367
-2.25236343822672,-2.33887271503957
-2.39399755888301,-2.44036038367182
-2.48759994118591,-2.46544269407485
-2.4527376879333,-2.38387798335099
-2.05094410654387,-2.26453568298975
-1.99410063509323,-2.23450614590984
-1.95815941033679,-2.22338733324755
-1.98834469978825,-2.26024770774979
-1.98981665956816,-2.26820388922899
-1.95223239061653,-2.21886031948873
-1.91994720728891,-2.1781274993154
-2.00161963466568,-2.26611024784395
-2.12399940421962,-2.38636699440683
-2.22826108783664,-2.48984895056243
-2.3025950276098,-2.56106738829591
-2.26232627680292,-2.50143056233494
-2.19817405423881,-2.41198113868822
-2.18209581358032,-2.37755889109962
-2.19246337083013,-2.37468186491872
-2.24036077389222,-2.39746385303239
-2.27405783090297,-2.39197875765003
-2.21133007415441,-2.27820230473503
-2.15862581236285,-2.17032233138102
-2.15119271784083,-2.13020616888635
-2.18567077410478,-2.15834305918198
-2.24239020290943,-2.23844992343431
-2.28373887253122,-2.30174041645469
-2.22713573749472,-2.27339583969415
-2.16941121861415,-2.2320714765365
-2.15623033016252,-2.23727262717411
-2.17102165640717,-2.2564937594122
-2.18183433165295,-2.26756976884327
-2.17486852238808,-2.24767160053994
-2.06517418602644,-2.15825401261644
-1.97411632840759,-2.10365338764906
-1.94833756963849,-2.15700476428753
-1.98244084167978,-2.25815822832493
-2.06270765758808,-2.38031633921571
-2.12167012126679,-2.45827511155988
-2.09640873758451,-2.44777627511225
-2.0332773661837,-2.39882528986458
-2.04121107323515,-2.41573754767292
-2.08206250267648,-2.43342316080009
-2.14026734995395,-2.46996835971611
-2.16124542792786,-2.45415717934545
-2.07753613129737,-2.3399804865658
-1.99433966248195,-2.22330797139659
-1.97075614591212,-2.14466723404107
-1.97883050244399,-2.08380198208898
-2.02846625059747,-2.06664245327472
-2.06310670581906,-2.04375058201027
-2.0011337777025,-1.95284942637733
-1.92175298311498,-1.88310435556995
-1.89613407245333,-1.89659297572537
-1.93335655282542,-1.96075635540665
-2.00984955429067,-2.05598258833602
-2.06371707929335,-2.13083844753347
-2.00433023787978,-2.08855032385897
-1.93458963647432,-2.0426718013147
-1.95972408331121,-2.09746961412064
-2.04012041216798,-2.21313747400839
-2.16672159616466,-2.38042958403258
-2.2695996056296,-2.48627191835571
-2.26107221035287,-2.47283815239282
-2.21794043786826,-2.42401088466855
-2.22393189704719,-2.43097586385558
-2.23658038747588,-2.45788567363198
-2.26661546345702,-2.47738621197625
-2.25282008522757,-2.4617304732517
-2.13355646933937,-2.33678821482325
-1.99174671844467,-2.21831597287247
-1.93842652285037,-2.1870601823408
-1.95669950351502,-2.22571513823936
-2.04437196405022,-2.33565817622132
-2.10747791133432,-2.4158567535821
-2.06454386368038,-2.38031074234526
-2.00163122378353,-2.32478215306186
-1.99031599125734,-2.3249866325889
-2.01807020033908,-2.384675004717
-2.09661386655492,-2.44678719594856
-2.15383291881385,-2.46085055745259
-2.14351840150775,-2.35286299291051
-2.12033703028271,-2.24899270813603
-2.11535383228231,-2.19298907669611
-2.1263134437638,-2.1899814276387
-2.13863497209506,-2.21018060085148
-2.15103326112275,-2.23290433547053
-2.0812055325782,-2.19528219191979
-2.01130440538438,-2.15446645524304
-2.03205709182604,-2.17978766673733
-2.07905501805052,-2.21616574943867
-2.16999637731882,-2.29462164906333
-2.20546821585502,-2.34047394690744
-2.15230408917382,-2.28680567232118
-2.29007569757403,-2.45569602269107
-2.23687839233187,-2.41661034332917
-2.21809101140156,-2.41328538589431
-2.26082088306055,-2.48199410960345
-2.30276108579006,-2.52673564901458
-2.30305472258085,-2.53383445794368
-2.29684291583785,-2.50548397945936
-2.40115345959038,-2.58507343124787
-2.512735302591,-2.66992726393724
-2.61707001978566,-2.73476335682802
-2.68165845644016,-2.77810780406402
-2.6275188341512,-2.70240452464604
-2.54648401025807,-2.60769380263497
-2.5173841674224,-2.57785263636747
-2.51817405624345,-2.57255134973576
-2.55400136927915,-2.59924613766469
-2.56918246737284,-2.59300635197998
-2.47366710645542,-2.47766095269641
-2.37254243625712,-2.37169694996657
-2.34520689212476,-2.3417589268815
-2.37994771244182,-2.40146776468602
-2.44222367136132,-2.50245067349875
-2.50867125031822,-2.58968224793445
-2.47613196426276,-2.57277983991583
-2.43987651773443,-2.53316439819356
-2.44577515556021,-2.54384341351043
-2.46784941569897,-2.57448656812797
-2.47324533506302,-2.58870231757204
-2.45248992747901,-2.57437264283024
-2.33608420315246,-2.45206351290657
-2.25350166100848,-2.35277135208963
-2.26655210046921,-2.35699634941277
-2.3339022531396,-2.41160530538164
-2.42541538009105,-2.50119451625325
-2.48191139969084,-2.54546545702225
-2.44483580404692,-2.49902359782722
-2.39209487414807,-2.43087954445685
-2.43932471712146,-2.46235193054071
-2.48919914583956,-2.51805666503259
-2.54959602714944,-2.59875215364725
-2.54636528594537,-2.62833670909564
-2.42641646691711,-2.53728701765843
-2.32465870339546,-2.42268391805108
-2.30921746803828,-2.36018871046582
-2.33509190736835,-2.31779847573596
-2.39477708741548,-2.31895474917494
-2.40209400287274,-2.31806899025198
-2.30348202634009,-2.25003103930999
-2.1869498185139,-2.21314897283828
-2.13778850705682,-2.27107236639624
-2.14165643091538,-2.37961523888645
-2.21459844132619,-2.51528559731256
-2.30494490707722,-2.60248412379779
-2.28867384611881,-2.55016798479138
-2.29372501104193,-2.46349337984766
-2.39944471816348,-2.47897868789588
-2.54983974595901,-2.54820145603905
-2.72500721596865,-2.6793566300766
-2.80272667486789,-2.75666755057436
-2.74077786866341,-2.7074157545661
-2.646783275658,-2.63393054690756
-2.63153451161489,-2.64238642134393
-2.62120619877638,-2.68117413939605
-2.63072483057662,-2.73205916936537
-2.59811675205813,-2.74398538144869
-2.43303593966168,-2.63559135203005
-2.2631328771562,-2.51626106424393
-2.20352096275404,-2.48980106652686
-2.21313829172613,-2.51717734104888
-2.30204709678565,-2.57855697978648
-2.37436623996152,-2.60751807676143
-2.34955988579574,-2.51979724726954
-2.30247435027516,-2.42544127180471
-2.3364300162453,-2.42323001683735
-2.41888595342899,-2.4721201877187
-2.53195564655391,-2.565072559928
-2.58022147787559,-2.60896931771812
-2.50090463648871,-2.53950378823538
-2.4234074699105,-2.45244368727541
-2.38863473492437,-2.42216453173326
-2.39166828719859,-2.41100608343085
-2.414888006702,-2.41147935723709
-2.42399399733138,-2.40135063903764
-2.37017614612499,-2.31217303040193
-2.31276523115778,-2.2485927392796
-2.35058635556553,-2.32284980940766
-2.41411199913395,-2.43721904988385
-2.51045026791134,-2.57976568480171
-2.56228854946,-2.65065655154136
-2.51310037747418,-2.58550986204465
-2.16268941521869,-2.22050381921696
-2.09720995179784,-2.19419113760372
-2.05683593406114,-2.1869199130527
-2.08832884349321,-2.23538502357744
-2.12051413587896,-2.24083821009342
-2.11417413786531,-2.19797961821998
-2.11718289712482,-2.15462925160905
-2.24195217006897,-2.2354731602645
-2.37764958810027,-2.35644047365604
-2.49020160773977,-2.4527221874967
-2.56198950534523,-2.51922303383003
-2.51129963638381,-2.45636417700127
-2.41904675486964,-2.37758990518782
-2.3776641683992,-2.35038321675203
-2.36907217904536,-2.3520279459409
-2.39159912171405,-2.38804380309158
-2.39085870370039,-2.38969742856736
-2.2782869516386,-2.2836923366552
-2.15765497901359,-2.18667424134515
-2.11288085046243,-2.16809506061969
-2.13660380563846,-2.21513821234371
-2.20946883907199,-2.29577216092871
-2.28539387367739,-2.37581265922487
-2.2826182858019,-2.35693478348185
-2.27790028706462,-2.31484833581013
-2.31365966394342,-2.33073333098363
-2.35661757630775,-2.35645942581133
-2.38947785638911,-2.36632749723118
-2.39426448577817,-2.33687540448902
-2.31199048088155,-2.21767508883873
-2.25377389808697,-2.13092964861379
-2.27491976466061,-2.14411634537556
-2.33695205636858,-2.18858269370219
-2.42526681970129,-2.25749194038568
-2.46088966710465,-2.26864061802968
-2.4224944860624,-2.19905775888607
-2.3533627259104,-2.13185841625324
-2.35701019351493,-2.17877548728307
-2.36303920007938,-2.24075925485189
-2.39531678252275,-2.31787303547994
-2.39970754737181,-2.33728462321098
-2.30631774181344,-2.26272812334025
-2.24591501149694,-2.20389916777283
-2.27344410642598,-2.21838264060794
-2.33508301280932,-2.2497791855103
-2.38461119605082,-2.28138701958009
-2.38288349669387,-2.28411207549863
-2.26849206902965,-2.21690770835629
-2.16492467140004,-2.14894510334316
-2.11645197821376,-2.15893325408292
-2.12425356117352,-2.16782176938728
-2.18009310601632,-2.20095278279046
-2.25446420325608,-2.21459672038828
-2.22270768055085,-2.11009284236961
-2.18761663201406,-2.02705809561498
-2.24074291789366,-2.07120403633948
-2.33961926276673,-2.20026475573182
-2.47970655826179,-2.39391639054077
-2.55588368050085,-2.53375952727827
-2.52097423645402,-2.53800542953772
-2.4459089628178,-2.49471604662951
-2.44705524085023,-2.51299568801021
-2.4590749979597,-2.52492704604003
-2.48546328723217,-2.54266548205615
-2.47454682922873,-2.50518292475094
-2.3434827710344,-2.35118830740189
-2.20772604824395,-2.18314097726714
-2.16776885018535,-2.12469951293042
-2.20143772060209,-2.13601973481385
-2.29373179230609,-2.21993734579726
-2.37187476408809,-2.3012389835982
-2.31797354302026,-2.27229749485623
-2.25022609733786,-2.22790500832339
-2.24444604588158,-2.25077345223193
-2.27800393931062,-2.29505340145569
-2.33961980025676,-2.36479300122895
-2.35934741960816,-2.3964624762245
-2.26577708367591,-2.31144569048267
-2.17519563755501,-2.23991806610294
-2.12092059904375,-2.22062821897897
-2.09048609223917,-2.23072039878806
-2.09367644795783,-2.25534907208866
-2.11436580728454,-2.27538818189401
-2.09532952435037,-2.23288367414309
-2.09940120995327,-2.19375007377076
-2.18824040967394,-2.26011515528167
-2.29246648456427,-2.32739260913159
-2.40520744605236,-2.41774987310536
-2.45581502358585,-2.44512061751271
-2.39904255896238,-2.36603077514065
-2.50194468793393,-2.24002282345085
-2.47264307377415,-2.20710611656272
-2.4857755405934,-2.1789148127052
-2.56694505366509,-2.21414724522143
-2.62844536561003,-2.23546365908966
-2.62698783260566,-2.2105098253111
-2.58606507333262,-2.1827354544119
-2.66161717524377,-2.2634257353949
-2.73790827184899,-2.38294012276938
-2.80477157676561,-2.48316098915707
-2.85805743027562,-2.55216058226827
-2.79536203267941,-2.49204119819151
-2.71397061548599,-2.41869384595555
-2.68576056150248,-2.39717793069446
-2.6951548360922,-2.41608096076963
-2.73673339886758,-2.47553082873018
-2.75284694852898,-2.51247540949218
-2.6373469717198,-2.44797369038825
-2.51246922092936,-2.38160876749634
-2.4725537193796,-2.36480144760531
-2.49370565392275,-2.39445869059536
-2.55488761635613,-2.44912159408474
-2.62887911379505,-2.48209390765541
-2.61269293172231,-2.41507820075613
-2.59504001797844,-2.34173360373111
-2.62811229848382,-2.32953361347314
-2.67912598880063,-2.35880476620989
-2.71362583559796,-2.40275947751356
-2.71882288923574,-2.42891448916129
-2.61837430126766,-2.36320333021173
-2.55193962062818,-2.31154213373381
-2.57823216740277,-2.34986102614731
-2.63495645377907,-2.40482782805498
-2.70075836103253,-2.47051297299064
-2.69777043602879,-2.47431854981911
-2.62585155938252,-2.39503350706497
-2.5584149759675,-2.29101937773907
-2.61783579739957,-2.26955785674183
-2.67229737098104,-2.2681866293532
-2.7634439562741,-2.30491150297921
-2.78640157922815,-2.29165620029469
-2.69746128349448,-2.15527873138509
-2.61431930584033,-2.04687060146919
-2.58483357916784,-2.0267937342142
-2.56623924157171,-2.03933193823925
-2.56799531174951,-2.08479589517593
-2.52329100682857,-2.1116424503796
-2.39004342806188,-2.05655029851877
-2.27621563154046,-2.00748788494706
-2.24587004818532,-2.0049184807833
-2.26571952784055,-2.05793544845586
-2.32918891647656,-2.13149507338189
-2.41779478789694,-2.19052391407855
-2.39837898157116,-2.12178057213246
-2.3764307160271,-2.0605627172092
-2.46938369988476,-2.11599507147334
-2.61546687826334,-2.2393877015435
-2.80631597119043,-2.41504650276507
-2.93045344331583,-2.53635928393048
-2.91699919077467,-2.51852674118366
-2.85118230021301,-2.46428753591913
-2.86296623754787,-2.47518010941936
-2.87282897584004,-2.49443434716216
-2.89491069051897,-2.53423828878805
-2.86236719382768,-2.53792584151932
-2.69831936802719,-2.4342678223348
-2.52267025236214,-2.31033952197802
-2.45509934123984,-2.27409311550887
-2.4600601649882,-2.30468422998735
-2.54028189565962,-2.40427576333337
-2.60114219064554,-2.46933122866295
-2.54755272830321,-2.42606568323636
-2.48594352014695,-2.35378845044148
-2.49812372876394,-2.34288380089957
-2.55847797948878,-2.36601318282492
-2.6407197051367,-2.43639153432542
-2.67745646003673,-2.47073058142275
-2.59285354193292,-2.40082179403523
-2.50594309250915,-2.32702786115672
-2.44950383759171,-2.29158624788332
-2.42352813581975,-2.29394558507243
-2.41128747940688,-2.30228149616603
-2.40022036916681,-2.3071385606377
-2.33792365182722,-2.21140895491843
-2.30007396491725,-2.12974205853699
-2.40937946460694,-2.14822728283966
-2.53996559111844,-2.19032317745202
-2.69463608330946,-2.29135624291483
-2.76978628618169,-2.36436087883367
-2.70673622345268,-2.32747027950956
-2.26345744781638,-2.02483948591766
-2.21852954830486,-2.00327318164709
-2.21167685314969,-2.00467696606455
-2.27662448378645,-2.07021452126991
-2.33144576413179,-2.10765262176953
-2.34013484466539,-2.09835258992417
-2.3175143762209,-2.05303958690454
-2.38362862416306,-2.09919683974914
-2.46021895995796,-2.16251138386314
-2.5235670815724,-2.2050917183674
-2.56776068513774,-2.23606331413712
-2.50885535156044,-2.17085939208868
-2.43128014324864,-2.08935110205833
-2.4069433687,-2.05813640631426
-2.41737256258438,-2.05197993699815
-2.45768319273889,-2.07958782173567
-2.48434987679171,-2.07963085093545
-2.40503235020483,-1.97937671213598
-2.32909815656086,-1.89654917277614
-2.31592865304732,-1.87670379672971
-2.35914310039659,-1.9196212678392
-2.44228143466383,-2.00931827160448
-2.50416696193045,-2.08131686402893
-2.4670961240469,-2.0729803812913
-2.4117502208359,-2.04415806138685
-2.41560406914917,-2.07751737293815
-2.44172207616788,-2.11859770140619
-2.47314295108873,-2.15579863204203
-2.47777707506563,-2.16784458072289
-2.38040134957547,-2.0986469985405
-2.2951657118636,-2.03653384333286
-2.27439464905168,-2.03600573877245
-2.31054140769208,-2.06023616786752
-2.39193740890174,-2.1056163454212
-2.43623542513039,-2.10320918896219
-2.39588291240275,-2.04372136952799
-2.32346424851291,-1.9790998577963
-2.33743236915229,-1.99112274884628
-2.37531377778045,-2.01643322492616
-2.44596664787388,-2.06286352973337
-2.46609621937611,-2.06700839000221
-2.37223411438831,-1.97481725899185
-2.28037822035367,-1.89678341460716
-2.24173303637512,-1.88435470358174
-2.23597155262372,-1.8982036604746
-2.26820279710663,-1.9147802600135
-2.30271370498703,-1.90552008677092
-2.24277014022237,-1.82120464466166
-2.17553780978313,-1.75459575679607
-2.17232712129134,-1.76355107272302
-2.22701331613621,-1.82558500578774
-2.33480327085825,-1.92351627139746
-2.42474831963807,-2.02827479218057
-2.39523535346904,-2.03262229395934
-2.34198211240978,-2.01787576684509
-2.38192384062958,-2.06503918673953
-2.46406020203317,-2.14177974711962
-2.58173157421967,-2.2459681473076
-2.65950884624633,-2.28912103965935
-2.62912465455219,-2.23726408350394
-2.567971014355,-2.17477016727665
-2.56954184632709,-2.1758903986366
-2.59096429058728,-2.2005646206418
-2.61905624597787,-2.2347632105413
-2.60942384512051,-2.21955346609563
-2.48354126578868,-2.10393241818731
-2.34375477490611,-1.97519075080189
-2.28210771050231,-1.93217898445908
-2.28072660622789,-1.93667298233404
-2.3269908387313,-1.97632179936743
-2.36137516493579,-1.99406330216431
-2.31111471123884,-1.90699433075871
-2.25819775575411,-1.82071464314861
-2.27325492757665,-1.82442997984341
-2.31936108969515,-1.89247499462097
-2.39402039346936,-2.01924875286899
-2.41474593867168,-2.10150945403091
-2.32311936210991,-2.07197441024877
-2.21925150491365,-2.02890046991067
-2.14835216726333,-2.01292874792976
-2.10039024069898,-2.01214343385276
-2.06018372380803,-2.0064097284511
-2.03687882639176,-1.99607802840444
-1.97129002914872,-1.91579862308788
-1.92636710007612,-1.84472377750001
-2.0188767827578,-1.86473816718637
-2.14490850035739,-1.91224430733441
-2.31708888871239,-2.01847250497437
-2.43864224936379,-2.10210444887272
-2.42784265833923,-2.09032779461917
-2.13404873943037,-2.29468362536935
-2.10862340447854,-2.24460944982386
-2.10462154351632,-2.22024886819131
-2.15161086229856,-2.26210499459383
-2.16358729000759,-2.29343210263982
-2.11533066086728,-2.2726224462807
-2.0682163709569,-2.25272766825324
-2.12206555198465,-2.35665653014643
-2.20701519316517,-2.47883976449455
-2.28422895362335,-2.57873559391287
-2.32893351837904,-2.64931844513367
-2.27081588709894,-2.5899043420556
-2.19850133454428,-2.50045232262734
-2.18426262457211,-2.47211941318029
-2.19903798547205,-2.46837750562467
-2.24062203578035,-2.50293775551936
-2.26699642297372,-2.51888752133851
-2.19018639999513,-2.41417099547931
-2.11853485615169,-2.30468729587543
-2.11468661570343,-2.26602707864009
-2.16643935287676,-2.2896779821231
-2.24016534929592,-2.34835043444465
-2.28745970315205,-2.40709039076733
-2.23486658583206,-2.38014720350832
-2.15758346453955,-2.3594378554318
-2.1519734937731,-2.388556816439
-2.16335057566764,-2.43650809157053
-2.17870109675838,-2.48049103714809
-2.16647293513859,-2.50093086076068
-2.07086084656672,-2.43264817885678
-2.0080442175266,-2.38604866882777
-2.02818968356444,-2.41953785987632
-2.07076966973032,-2.49637150373569
-2.13737880428962,-2.56754463518113
-2.14277012932651,-2.58087390331986
-2.06950449898992,-2.51860441527611
-2.01082054784849,-2.44143755332171
-2.06086858273027,-2.45076190090383
-2.1063846497712,-2.46367485909419
-2.16500517540845,-2.51112669630039
-2.15320581873135,-2.51234156484901
-2.05368122249945,-2.40906634861602
-1.96522002667909,-2.32261692968456
-1.93582178540638,-2.3021962285234
-1.9350202122436,-2.29803632383156
-1.98243742256919,-2.3393365426763
-2.02360285345108,-2.36248189480625
-1.99574890919627,-2.29396554107136
-1.96254673790067,-2.23314002999791
-1.96887168044204,-2.21869654644271
-1.99499076878083,-2.23601451112527
-2.03580906415923,-2.29650978741973
-2.06819576238908,-2.36847566881425
-1.99491193349428,-2.33394334118397
-1.93033773969217,-2.28744815680479
-1.96572002634751,-2.33393646499101
-2.07415098219756,-2.42714550520104
-2.2411578152923,-2.56081413321376
-2.35212130507124,-2.64624522253494
-2.33944471884912,-2.60277165784522
-2.29047206499579,-2.53254112348974
-2.28758712938864,-2.52699225078986
-2.29301029518521,-2.54712028807228
-2.30134095937224,-2.59036158943305
-2.26281170661524,-2.58445199736736
-2.11463831302853,-2.47047570026962
-1.95633534477113,-2.33629467569971
-1.88968304442428,-2.30053270895802
-1.88162945128507,-2.32768717176893
-1.95950282946538,-2.41835028355845
-2.02890352388439,-2.48372818092765
-2.001992976023,-2.43920938936926
-1.97261464829849,-2.35775874474557
-2.00204631238835,-2.33984021615058
-2.07085492311772,-2.35241815117658
-2.15648064134549,-2.40464908617503
-2.19988549783641,-2.43403684677977
-2.13269066460195,-2.36238491321062
-2.06206185813661,-2.27549609973744
-2.02809294677476,-2.22891091132224
-2.02198064371134,-2.2096815805621
-2.02293169987812,-2.20212182120576
-2.01977523779311,-2.19586701808256
-1.9721965528279,-2.13491379157485
-1.93473196219752,-2.0920289379214
-1.99983952326759,-2.16398561767069
-2.07672879918379,-2.26228600593202
-2.19140845719767,-2.40084043110301
-2.26916887337917,-2.49637359055653
-2.25436046918198,-2.464773497949
-2.44464768695235,-2.26774704540942
-2.45231766312932,-2.23249963647123
-2.48999863992677,-2.22102020201089
-2.57499262383721,-2.26995137503535
-2.59721207446436,-2.2963380758622
-2.53559007992965,-2.26482239666167
-2.4492114543524,-2.23525076369152
-2.4718782919215,-2.30801430963284
-2.53953145475357,-2.41624148510018
-2.60114046182882,-2.49871888838966
-2.64289092321074,-2.55265031845422
-2.57359603886156,-2.49432530500248
-2.49617125332707,-2.41042028315025
-2.45989693304732,-2.36779595584551
-2.47322877563293,-2.3629373054491
-2.50983423330166,-2.39316721550477
-2.52029267026177,-2.40000214329418
-2.41501410063884,-2.29205825927805
-2.31635775780066,-2.17803501906385
-2.28711819186624,-2.13662258930009
-2.32267210685231,-2.16154045821756
-2.3958693008332,-2.23420534578131
-2.46321528976982,-2.31830934176258
-2.42135607840472,-2.31378373400758
-2.36616847083042,-2.29369998989401
-2.38310577214777,-2.31901181174438
-2.40945670760813,-2.36393392947482
-2.42655916804548,-2.40237819419505
-2.42461058611332,-2.41387790025332
-2.3340874758364,-2.33568361737004
-2.27853369745917,-2.28089804901587
-2.33114422117966,-2.31105444617439
-2.41495520883271,-2.38418808132055
-2.51847230834523,-2.49472851857187
-2.54798325693911,-2.55658200018372
-2.49332484826116,-2.5228727449717
-2.42078329812409,-2.45633952883248
-2.43862070946582,-2.46292434666766
-2.46036031528679,-2.45453594867412
-2.50067874606865,-2.48179461748406
-2.45982794169322,-2.44543837680737
-2.32361471503403,-2.29783004962158
-2.22320532537055,-2.15566582149865
-2.2174471580307,-2.06893624782146
-2.25199697659478,-2.02527588326963
-2.31175168953489,-2.04317086595921
-2.34477908292896,-2.06588336852602
-2.28623628472535,-2.01591284353447
-2.24351583571011,-1.98276025784438
-2.25370403085608,-1.9979951329177
-2.28504602914306,-2.0615156470437
-2.33762375252456,-2.1492876917024
-2.36138978450177,-2.23506301442897
-2.27539307826714,-2.20353483503747
-2.20086243742043,-2.16762323240468
-2.25080013423596,-2.21752082078534
-2.37634642478557,-2.3197072534431
-2.54006864582742,-2.46764840924977
-2.66206214863416,-2.56986417395011
-2.64749267525853,-2.55238772038865
-2.60837225598268,-2.51287343856746
-2.6213143943886,-2.52413527294534
-2.6431764782629,-2.53262785084877
-2.6806282019981,-2.55056874425789
-2.66887005832412,-2.53405970001949
-2.54673210074318,-2.39301407260956
-2.41193215482381,-2.22679970982724
-2.36973837349906,-2.15188887310488
-2.38163824162195,-2.12939425482326
-2.45678920072424,-2.16728748129722
-2.52009551689583,-2.20988247094287
-2.49967552073731,-2.17788328666275
-2.46768379012602,-2.15988262525947
-2.49650300327453,-2.19774535837085
-2.54488694339316,-2.27190526810293
-2.59731317698072,-2.36500424480698
-2.59223644834618,-2.40699144679326
-2.47239540048872,-2.32317882413049
-2.35912047567704,-2.23637096883369
-2.2963744018251,-2.17723950633854
-2.26409445100837,-2.13654038378461
-2.24871987034441,-2.11008560991745
-2.21459349609912,-2.08967356244027
-2.11715765368876,-2.01001307303193
-2.04703587575124,-1.9683692616201
-2.12789817707378,-2.07489762534949
-2.2439406819891,-2.20852117422941
-2.40180711627587,-2.37858884017572
-2.49217799995034,-2.4828391442466
-2.45376518936513,-2.45918251889946
-2.37157545428821,-2.18963656579693
-2.34969143317556,-2.14110096144619
-2.3414222268429,-2.1303301236786
-2.40553611531618,-2.18066642989748
-2.42069763281973,-2.21531266570154
-2.37409297358838,-2.19818089481439
-2.31949610221773,-2.16844398642652
-2.39329009241205,-2.25351440541567
-2.49252864945909,-2.34568480554129
-2.58037868071287,-2.42981293332861
-2.63471784206853,-2.47760546312497
-2.56677245110003,-2.41584814979896
-2.48111769480222,-2.32583820554223
-2.44342620362614,-2.29742168653211
-2.44675665100364,-2.30622758974339
-2.48727460518533,-2.33700223974951
-2.49441985262071,-2.35830701117292
-2.38159674548229,-2.26365588091158
-2.28192113546913,-2.18709038056531
-2.24915657673004,-2.17508967567144
-2.28841637997092,-2.23163217357257
-2.35459052666244,-2.32991450835935
-2.42534539278208,-2.40551043915178
-2.39621857228661,-2.38422946036015
-2.35005715836829,-2.33857317332744
-2.37200764256624,-2.35854569311624
-2.40017115236198,-2.39361292453576
-2.41821760825876,-2.4147461329298
-2.41027581003516,-2.41509210702026
-2.31520893124003,-2.32322408048299
-2.2603033366094,-2.2428698509898
-2.30864071257572,-2.22297903912585
-2.40807177098955,-2.24435339560717
-2.53659133948419,-2.29738564231562
-2.61110723739556,-2.3273127963414
-2.58776197038508,-2.29325191147339
-2.50648714125687,-2.26553031771621
-2.48338705442823,-2.35027896954049
-2.4542685482868,-2.4210468775725
-2.44543698210808,-2.50877323101322
-2.38800581197727,-2.5317762139136
-2.23971484859587,-2.46564835678551
-2.13371478020248,-2.40104537231562
-2.14798264252469,-2.38624331113823
-2.20527885422348,-2.38588329768173
-2.27970031224222,-2.41445138360214
-2.34187711091951,-2.40617259887774
-2.31578554447438,-2.29870523970192
-2.28217186721154,-2.18852000169375
-2.3047401044347,-2.13625451179433
-2.34678037532929,-2.12229104368966
-2.41177815311633,-2.14640263842475
-2.45338693995076,-2.17341909627197
-2.37511255873115,-2.08989536839317
-2.28114493167824,-1.99982149662066
-2.30242576092874,-2.02111588301055
-2.39707367569076,-2.10947456337151
-2.54491282073615,-2.26677588105344
-2.6512854666094,-2.40670723451863
-2.62878472591946,-2.44370218377168
-2.56610419650965,-2.44765250983072
-2.58669183567792,-2.48454342935093
-2.6093408017138,-2.51735035528221
-2.66264181708985,-2.55092271335336
-2.66651437132346,-2.53511417428371
-2.55151557324046,-2.40625256077597
-2.41200450593719,-2.24681676998903
-2.36326206955956,-2.17034448521788
-2.37300185208714,-2.14197282414824
-2.43471565321813,-2.17154373281333
-2.48014530866075,-2.20280922955266
-2.41510237827264,-2.15474647091568
-2.33496511435515,-2.10589871527109
-2.31839331217009,-2.10323993641926
-2.33196373458792,-2.13026113401039
-2.4014372048318,-2.1822402540408
-2.43569969412523,-2.23136388587731
-2.36652754416259,-2.19244337854518
-2.28397960299363,-2.14211649693281
-2.24627158287608,-2.12437990995346
-2.21153554850834,-2.12785357930289
-2.19647925846735,-2.13904137981734
-2.18934184818824,-2.15931613370979
-2.11404239845328,-2.1472088340262
-2.07140167603172,-2.12135075760311
-2.14156918454854,-2.18761623867295
-2.24957899001255,-2.25266304383309
-2.40392411239758,-2.34777402180731
-2.50985815566192,-2.39060167962498
-2.49140852808859,-2.34323149178235
-2.5151562147002,-2.3415095759344
-2.45989988385818,-2.30838831161125
-2.44058823379007,-2.27990437478328
-2.4972420680428,-2.31743524198075
-2.51352060188191,-2.33147918453721
-2.47601800846305,-2.28125827366589
-2.43078409657702,-2.23637627801722
-2.51483955754774,-2.31420683385031
-2.6339311019488,-2.43788870384489
-2.7354283648082,-2.5390156101816
-2.80022853382777,-2.60375336198301
-2.7444770462909,-2.54392816434471
-2.65585628595412,-2.45833671112375
-2.62522832626462,-2.42658496453279
-2.63053970518811,-2.42533032962421
-2.66810440707029,-2.46112624097309
-2.68021974520899,-2.47608961301266
-2.57385338354816,-2.37671378457704
-2.47428678163689,-2.28038457287757
-2.43341381105031,-2.24861549810149
-2.46429189767069,-2.27927692232008
-2.54114375241616,-2.35705072827463
-2.6167432115613,-2.42193529584243
-2.60262772677994,-2.39566979096268
-2.59036072741997,-2.35404787636745
-2.62949838457576,-2.36664790593979
-2.69343083079768,-2.39388897313266
-2.74988901235515,-2.40827551128114
-2.78271815284812,-2.39514063876097
-2.69885804076048,-2.29652138422859
-2.62530348103442,-2.22492325319161
-2.6251573743668,-2.23876055013141
-2.66112222988658,-2.2986202545636
-2.738675839281,-2.38513034925082
-2.77467714755189,-2.43905536813488
-2.70973071294918,-2.39913819611995
-2.59818431881748,-2.34905359759496
-2.58037514246815,-2.38013177587209
-2.58492379344014,-2.39829259705511
-2.62702233829194,-2.41765512546258
-2.6178496591712,-2.3568780232344
-2.49006792727337,-2.2133711611975
-2.37705164824035,-2.1153123239755
-2.34739391388131,-2.12592972232078
-2.38087135115224,-2.18572892902614
-2.45604993129576,-2.2632462899453
-2.52179015175205,-2.30217203161118
-2.47179916491411,-2.23816551082605
-2.41292987742944,-2.15588283071366
-2.41901755112901,-2.11845866103682
-2.46435339992983,-2.13025227821044
-2.56596489008631,-2.19000264709224
-2.66201946502136,-2.25169579148352
-2.63658046351019,-2.18741453312854
-2.59103132475603,-2.11513433479338
-2.62453377221936,-2.13405188735849
-2.7023555787077,-2.21396947449796
-2.81456030704128,-2.35540078854141
-2.87749207401933,-2.46523385288025
-2.82862853248502,-2.4671504988776
-2.75189475972375,-2.44133840070895
-2.75387627925771,-2.47224869672
-2.76992163643162,-2.51318984982983
-2.80567181412022,-2.55824886803998
-2.79505389344776,-2.5648222192681
-2.66309045234697,-2.46254615994154
-2.52161220105685,-2.34831543989231
-2.4713878080469,-2.31522037787014
-2.48236981297059,-2.3422488519166
-2.54067160171456,-2.42145616959586
-2.59698554468945,-2.47874830491853
-2.5661229956963,-2.44169353405662
-2.53070984846594,-2.38734828231024
-2.57304661579181,-2.39164565450132
-2.6455188458625,-2.43135752370646
-2.72207771376585,-2.50026863106186
-2.72638047086545,-2.50454124699153
-2.60622881574556,-2.38058725959283
-2.49610366936476,-2.26679043466715
-2.44110953828538,-2.18886592216036
-2.42933180798795,-2.13972764709332
-2.43955293436068,-2.11991172085107
-2.44628762143557,-2.11708586490987
-2.38126639558846,-2.05501355886902
-2.32893692001756,-2.01449916293835
-2.39167558368869,-2.08362192038315
-2.49891746052842,-2.18489722416338
-2.6209993776455,-2.33944139886887
-2.66704894496698,-2.45987545831045
-2.57499754329802,-2.45220237609672
-2.09496594472517,-2.19711818468952
-2.06900720095304,-2.13813746055942
-2.07624622175264,-2.09723392481791
-2.14466755330568,-2.13926910870634
-2.1940669041449,-2.17700439042743
-2.19108573179666,-2.16928562893127
-2.16590881251457,-2.16540921857019
-2.21806348757048,-2.28205588822308
-2.27357739609178,-2.41784726816028
-2.31925430224778,-2.52599364111139
-2.3465986024765,-2.58851487110034
-2.28054774840887,-2.52798659067598
-2.1916221841433,-2.43228131267057
-2.15840334280507,-2.39790708879405
-2.14236082511702,-2.38945306112407
-2.16098786968327,-2.41316517436989
-2.14734380000438,-2.39897718856133
-2.03171763813216,-2.29074979273427
-1.93170100608292,-2.18592715867531
-1.88972435140855,-2.16956032387433
-1.94368535126967,-2.22743343808662
-2.04094487098945,-2.32888068194438
-2.14379746556429,-2.41765566817628
-2.16505752325006,-2.40617964303252
-2.16945679885342,-2.37178270602387
-2.21275115151694,-2.39572201844131
-2.27592247617673,-2.42875212433055
-2.31881826828388,-2.44874772272641
-2.33732921393452,-2.44043247529646
-2.256385047728,-2.32836655814311
-2.18014031932673,-2.24051599746017
-2.16599154505854,-2.23879520477398
-2.18273772555824,-2.28021066854489
-2.21595557552279,-2.35606599069901
-2.20728816926451,-2.40662005118135
-2.1431816585555,-2.37713371100122
-2.07814977684321,-2.33721775192816
-2.11827829229161,-2.40718354593621
-2.15157831059445,-2.45802333578421
-2.17918124052352,-2.50774951801303
-2.14294212090526,-2.48179992924332
-2.02646630688184,-2.38217994399556
-1.9245082475588,-2.30102026829801
-1.90454707281774,-2.31136396544347
-1.90286457985905,-2.34684298525216
-1.91950332793768,-2.38983079596834
-1.90909503098593,-2.3645542517868
-1.82807190852951,-2.25345868437003
-1.78658350853566,-2.14798034005583
-1.82686394125736,-2.11045469599447
-1.93510246503896,-2.11035622761327
-2.07316044789741,-2.15323618792613
-2.20294309985472,-2.18652145816152
-2.21447976675813,-2.10296033796547
-2.19082863776335,-2.03434833849176
-2.2221746121888,-2.10700823924109
-2.27376144835554,-2.24816130847149
-2.36373826210137,-2.43960160961263
-2.41677897545393,-2.57643411926023
-2.36540999501193,-2.58648996618043
-2.29840739625708,-2.56217492311972
-2.29204923792081,-2.60344464356985
-2.3114090593448,-2.63220926262539
-2.34431328702141,-2.66499632208726
-2.3347611244119,-2.65906945639874
-2.22027514712346,-2.53071461976176
-2.09086573491654,-2.39371429632674
-2.05682222170613,-2.3447035767565
-2.08167652404815,-2.34622625059484
-2.15976927804067,-2.40498269692131
-2.2032214999895,-2.44574188276903
-2.14358706643005,-2.39310645538233
-2.07404788870441,-2.33487595801824
-2.08355773903078,-2.35059228332999
-2.14234942948432,-2.39595839386773
-2.23735211673537,-2.4475227179304
-2.28738840946959,-2.44095597112443
-2.24338738237027,-2.328825000076
-2.18802039887233,-2.21177875377343
-2.15863586167199,-2.14732864610728
-2.15659090249635,-2.10648031995699
-2.16126263386975,-2.09944019885017
-2.14428648532206,-2.11845104539686
-2.07316724755169,-2.09333139770769
-2.01745085221936,-2.09139400656095
-2.0683139069026,-2.20620118313335
-2.15538255812469,-2.32386633216183
-2.25682019404439,-2.44611111540864
-2.30162610939678,-2.48117561523512
-2.23800052778416,-2.39083907947094
-2.38983580063887,-2.23460917216788
-2.37095055449893,-2.17641012011159
-2.38952832607824,-2.1491353534285
-2.46315225526015,-2.19320075986142
-2.50365399820131,-2.21800131359331
-2.47185035932221,-2.19541034172968
-2.4269229305918,-2.17656060833974
-2.47220264458986,-2.2639056111948
-2.54426383207049,-2.38232159409718
-2.6025204487708,-2.47693047026379
-2.65047442577925,-2.53420376119202
-2.58676178845818,-2.47553155072778
-2.50380212427409,-2.38294878911655
-2.48316867718679,-2.32981741067712
-2.48958944947655,-2.30171559843983
-2.5190675167968,-2.30375872170643
-2.53670063732742,-2.29157049505031
-2.43092205029012,-2.16749530121884
-2.33634221368587,-2.04685883194498
-2.3136406008027,-2.0009521287678
-2.35685723877331,-2.03746536159047
-2.4287442259078,-2.1336875660074
-2.49574090848201,-2.23776774243723
-2.46394705409836,-2.23765513125054
-2.41916632056728,-2.2232602744791
-2.42675623407433,-2.24417450264485
-2.44755450548493,-2.26441517717688
-2.45644197316281,-2.27188602871639
-2.43890564230172,-2.25100600531789
-2.32736845278856,-2.13596284751078
-2.24169002055731,-2.05471405889768
-2.24901902960464,-2.0535339170516
-2.3141391169575,-2.1174989131119
-2.41700617515338,-2.23548838386513
-2.47183114259128,-2.32884871852956
-2.44293225858756,-2.3275009553105
-2.3826910561612,-2.28049521458274
-2.41411342529474,-2.29236721083568
-2.45247713177455,-2.31363715914899
-2.52008917260671,-2.36766627388699
-2.53729658431085,-2.37172648669846
-2.44928077453339,-2.2751078318957
-2.35461755897818,-2.18234659887735
-2.31821748720468,-2.15201704111003
-2.30335986138301,-2.15467433939052
-2.31286042995338,-2.20699354883917
-2.31915882392221,-2.26156388434038
-2.24254471317519,-2.23275241426144
-2.17661292519582,-2.20847876573942
-2.18525723332617,-2.20870065653812
-2.25078468409482,-2.23055152813092
-2.3626856973039,-2.27525081998048
-2.45661655858015,-2.31416476004067
-2.43697958404035,-2.25495044941586
-2.39841293387527,-2.19363673762029
-2.446751905794,-2.22865212261422
-2.54346669043038,-2.3161774446352
-2.68734992640517,-2.44599730440276
-2.76681752994858,-2.52069579185545
-2.70852858420175,-2.48404952272024
-2.60502496414198,-2.41772950954752
-2.58783524409406,-2.41584036454213
-2.61170824361867,-2.43739540612086
-2.64251786231511,-2.48065438910086
-2.63919559830089,-2.50428331262318
-2.51789731021012,-2.40524379924167
-2.39313594654037,-2.29582907233947
-2.36346251389802,-2.25256779962274
-2.39294252988419,-2.26557491859286
-2.48361071065913,-2.31965230140276
-2.5444763304859,-2.36131867503136
-2.46601690222237,-2.32670217374528
-2.36858931453223,-2.26576951979374
-2.35656337758671,-2.244027207948
-2.39191389972949,-2.23967175677949
-2.45883830607376,-2.26992794653305
-2.48405862340472,-2.27559764002471
-2.40012169783364,-2.18856910466657
-2.29557960683456,-2.09373881994624
-2.2266044013695,-2.04260816977307
-2.18177559406399,-2.01131752093604
-2.15549474803456,-2.00742196574319
-2.14121489054183,-2.03372431944065
-2.079783662132,-2.01154088966683
-2.03984545248797,-2.01035409243692
-2.13160505021269,-2.10419178164258
-2.24869041630583,-2.19523720018018
-2.39187338169387,-2.32161364526171
-2.47752015990976,-2.3847255151703
-2.42691719711059,-2.3353541986195
-2.17321102755905,-1.95809114718109
-2.14450479299789,-1.91863749535703
-2.12794827306664,-1.89464749862337
-2.15899224745759,-1.91068939101621
-2.15824492846362,-1.90434916617698
-2.10395221556833,-1.84889368989351
-2.04982495866952,-1.81910585304776
-2.13333585710798,-1.9085935557718
-2.24944884462959,-2.03669028746113
-2.33804252230184,-2.14158712427882
-2.39221325724246,-2.20470050972934
-2.32353992870306,-2.16361642001823
-2.23804717393022,-2.08214597022256
-2.20335027072292,-2.05531890649713
-2.21467275463498,-2.05601588929163
-2.24956899627072,-2.07224900654795
-2.26240117760054,-2.07331266660146
-2.17657753776982,-1.97756251370932
-2.10498957183881,-1.87930942992291
-2.10089819978394,-1.84659324014526
-2.1576625298237,-1.87195766896705
-2.25553256894574,-1.93202145721947
-2.33548191874067,-1.99929034781674
-2.29270409302103,-2.00764829589242
-2.23465292836796,-2.01055477433219
-2.22504082789037,-2.0605870274452
-2.25811730949058,-2.11571148013193
-2.28178414534023,-2.16023559306203
-2.28683934988453,-2.16924190076724
-2.19973653279114,-2.09634510870033
-2.1274654920693,-2.03694613064821
-2.13724589071214,-2.04222019055899
-2.17659445036762,-2.06646339808805
-2.25391241312942,-2.12239935088357
-2.28700371858475,-2.13182040508453
-2.25117651542775,-2.07223495863545
-2.21063168204991,-1.99536882935024
-2.27108029891369,-1.99771244082397
-2.31940818714787,-2.00702181545228
-2.36607287863682,-2.04456410949959
-2.33426573162629,-2.01548281827847
-2.20374606786294,-1.90582107601233
-2.07683833436184,-1.81757794261944
-2.01070215186404,-1.7975198661021
-1.97209565970218,-1.8297008640821
-1.98554680447796,-1.91476218184659
-2.00599833908381,-1.99081156619515
-1.98102489462117,-2.00605696522884
-1.97062029005701,-1.99625886377451
-2.0332505406007,-2.00383678544353
-2.12259033779066,-2.03358397936954
-2.21961934053522,-2.07937641462852
-2.28147466463146,-2.11679951263162
-2.21684760467236,-2.0695641979536
-2.16231374144733,-2.01344939111966
-2.20480302691812,-2.0273482538203
-2.31289239121015,-2.07644318677062
-2.46166265522599,-2.16237309661225
-2.56002099169133,-2.2228843402911
-2.53035929896919,-2.20076043895057
-2.46611998212734,-2.15070975937971
-2.46317481975987,-2.15270854679211
-2.465955650091,-2.16384486353508
-2.4763930377165,-2.17716782051802
-2.44900183406852,-2.15848047741329
-2.29417782214277,-2.03888859189966
-2.13528754569935,-1.89946519076837
-2.07358175953316,-1.85339344656594
-2.07287326939473,-1.8593477492509
-2.14245518121556,-1.93968393928759
-2.19624529280036,-2.01827067315495
-2.15062361808624,-2.01134973862113
-2.08780408183293,-1.98715385636279
-2.10373718907763,-2.00410792134277
-2.16466297339266,-2.02576825863311
-2.24499326275732,-2.05378603730629
-2.28469682661935,-2.05013165641721
-2.21960431154635,-1.95333220671367
-2.14608467926761,-1.86418264076513
-2.10018408167417,-1.81098478013148
-2.07973867038582,-1.78106491709405
-2.0753912723113,-1.76936400854275
-2.08215091112302,-1.77505637447677
-2.03259741603921,-1.76425109688589
-2.00572381805306,-1.78179261800247
-2.09918018286837,-1.8945697985606
-2.19076324580561,-2.00810822074244
-2.30315746058049,-2.12740939072324
-2.34364091698813,-2.17902164197544
-2.26722340520159,-2.13046981257561
-2.02392646064308,-1.95705862775643
-2.0037754610399,-1.91915293785298
-1.99606327298015,-1.89082673042378
-2.04788627219743,-1.91860859441597
-2.05301789386005,-1.93569609139762
-2.00689415281053,-1.90950545988566
-1.95367968174886,-1.89255229254164
-2.01294308221178,-1.98138241894172
-2.10963754969411,-2.10336399561365
-2.18320839939674,-2.20295499107661
-2.23103635600073,-2.26853877631885
-2.18001237672177,-2.21966926851796
-2.11076284850566,-2.14404466928262
-2.07305176706103,-2.10386372788638
-2.05840062352814,-2.10086753873071
-2.06878036286788,-2.122850340408
-2.07212609990157,-2.12256429176725
-1.95371640780815,-2.02543729513967
-1.84858468685104,-1.91421793132974
-1.81126063985056,-1.87382463747138
-1.83635360625697,-1.88771600318681
-1.90816984382017,-1.95175195827491
-1.98634208761722,-2.03119991069784
-1.98828121981778,-2.04385523238877
-1.97594973212633,-2.0497443762906
-1.99580283256028,-2.10488699479337
-2.00908658983378,-2.16775127964857
-2.00218994704533,-2.22936050893346
-1.96798497345558,-2.26364323630262
-1.86609647146622,-2.20376640300509
-1.79418624406661,-2.15375570724553
-1.81910652996838,-2.15487817895131
-1.89199470019012,-2.18086004577401
-1.98218768399143,-2.22717035570131
-2.04820315306001,-2.22918610381875
-2.02233632655172,-2.15399063714877
-1.97795132597267,-2.0567571715694
-1.99977372164128,-2.0265019816732
-2.03286574989305,-2.0190292433017
-2.07798075586119,-2.05319002873955
-2.05281045664799,-2.0503404028628
-1.94052683226223,-1.96298520961833
-1.83876181938231,-1.90364686406672
-1.80951765527395,-1.91935248718658
-1.83035390372675,-1.96394865456249
-1.90330847046315,-2.02428439514843
-1.96650457163653,-2.05594171802982
-1.96299607914156,-2.0230646852776
-1.93637704996093,-1.99310837168589
-1.94461430634994,-1.97759449028188
-1.97824982581601,-1.9593994563415
-2.03555844452452,-1.95469127025382
-2.08101493958063,-1.93396554919566
-2.03565033439817,-1.82566406668992
-1.99630717690061,-1.74688763586453
-2.03194873675566,-1.77862926275881
-2.12649947003235,-1.89897622817362
-2.23166458525457,-2.07606321705534
-2.28198825582327,-2.21234432325816
-2.23896575189901,-2.23303869378343
-2.17501299703057,-2.19792353658004
-2.17842290985341,-2.20614492727587
-2.20231664492328,-2.21481958772783
-2.24316541634855,-2.22545100661605
-2.23431420972739,-2.1982728319512
-2.12680294493155,-2.0616109422646
-2.01441205983154,-1.92599383484611
-1.97320807281658,-1.86470738030988
-1.98517530936858,-1.87844944593935
-2.03304950456362,-1.97171713103251
-2.04388070860936,-2.07018694786147
-1.96703656955686,-2.08229194529296
-1.87592544040126,-2.07477885460772
-1.88425097989953,-2.0947944019256
-1.95221943785243,-2.12387961508134
-2.06279027847227,-2.15943876303291
-2.12235479675045,-2.15498095251693
-2.07066484837888,-2.04433208516077
-2.00052050741262,-1.94628798141414
-1.94975723580078,-1.87033207166056
-1.91224703832594,-1.82669678574534
-1.86224570687953,-1.80716656084911
-1.82066640622787,-1.79084173625035
-1.71284179883969,-1.73711028172884
-1.64746982411197,-1.71167103052087
-1.71945182182981,-1.79576041657949
-1.84225029258551,-1.90037849338331
-2.01106579857106,-2.04488371997985
-2.12545946424944,-2.14027348606639
-2.12752597161619,-2.11564468987294
-2.178700042954,-2.34457644682497
-2.11383702148947,-2.29253254099476
-2.0726738308388,-2.26954200789333
-2.11182331924039,-2.32287833925189
-2.15168598155959,-2.35286653857523
-2.15360837416282,-2.33395524635848
-2.14816488552641,-2.30462075566428
-2.2639063866822,-2.39650027711776
-2.38974993452733,-2.51228156695941
-2.48985095879241,-2.60353580725267
-2.55852788543136,-2.66144545953889
-2.49625757960988,-2.59614577985179
-2.41549235609287,-2.50220444374666
-2.38887384791184,-2.46865171116828
-2.3937122249523,-2.4738703036015
-2.43148240005553,-2.51554257886888
-2.45251317645819,-2.53052458438664
-2.36244321371869,-2.43183174340459
-2.27687945216453,-2.34473744300245
-2.2664636078088,-2.32123035716172
-2.31288851404663,-2.36651710814309
-2.40308604646668,-2.45385771356859
-2.47205419267898,-2.52763987075089
-2.44684484593525,-2.49816875138682
-2.39820305053938,-2.45559010258244
-2.40389023992318,-2.46807663200039
-2.44196583453591,-2.50173060608276
-2.47086639215447,-2.5255039775244
-2.46354988211779,-2.50704056436262
-2.35878320313805,-2.41450235765273
-2.27018556747508,-2.32597354140579
-2.24655311061655,-2.32004962286403
-2.25872383269462,-2.36537467962558
-2.30309939259479,-2.46984844076091
-2.31285107218858,-2.5376759185075
-2.25697536812851,-2.52264016132273
-2.19355441354146,-2.4805459209902
-2.24321556268333,-2.51528443385459
-2.30436042180491,-2.55116328131066
-2.39077980892482,-2.5924168691019
-2.41482217848753,-2.57756089477908
-2.335654406771,-2.4505651761768
-2.2656485566362,-2.33159363734113
-2.25917303156535,-2.26851246228912
-2.27466233772523,-2.24730287036942
-2.30831248455821,-2.27011299658819
-2.29950585565121,-2.27712048624074
-2.18748848546133,-2.20692996535518
-2.06967743591568,-2.13808568022839
-2.02874879153345,-2.1283457488616
-2.04209591704243,-2.16337155104844
-2.11763344399572,-2.23030467821934
-2.19135776458623,-2.30939532881723
-2.1543006791396,-2.28782940076591
-2.09901613384942,-2.25514398595303
-2.15211042290407,-2.31143457456204
-2.2483089492664,-2.42057901786017
-2.39065862930789,-2.57658598709018
-2.49627583446631,-2.66321470332465
-2.49597420423052,-2.63515695304834
-2.46188608819271,-2.56544241418364
-2.49491494349538,-2.56812860393296
-2.53234260474876,-2.58733227090999
-2.58013964069067,-2.61178300235761
-2.58127020965107,-2.58988951655915
-2.47365590273037,-2.46135519707934
-2.35264594771664,-2.30805206557278
-2.30907147660404,-2.25913145201644
-2.32308484154135,-2.27563653961662
-2.38139209840261,-2.36394120697164
-2.40728184378966,-2.42877748093973
-2.31647040516313,-2.39301159732764
-2.21092664831695,-2.33260427655855
-2.17818135321973,-2.34670294206716
-2.19277164527139,-2.40771721594879
-2.26101108576169,-2.49420697828122
-2.30325676814182,-2.52709028578757
-2.24561837812129,-2.44024720001842
-2.17320085629121,-2.3463107727984
-2.13961673746744,-2.28069979667302
-2.12393620461948,-2.25369962043237
-2.12203037987184,-2.24200717448275
-2.14652548453906,-2.22841502595434
-2.1192990594512,-2.14879529253772
-2.11304758524137,-2.09258517660896
-2.20572856211358,-2.15019482895291
-2.30032320300706,-2.2459468107362
-2.42736749487612,-2.39530595500584
-2.50094755821665,-2.48513338268122
-2.46684674835999,-2.45422023409289
-2.28592719876841,-2.2119496526454
-2.28141714621259,-2.13618272444488
-2.30161414179894,-2.09336890117612
-2.37334892208298,-2.1326374961818
-2.40164543447521,-2.18024026923617
-2.35642875812985,-2.18980789659524
-2.28968228808043,-2.19088912956515
-2.32644480815533,-2.31241245106507
-2.3919164702814,-2.45402087781268
-2.44783497157249,-2.56237789399587
-2.49007369552614,-2.63337928492226
-2.41685745409475,-2.58153796813455
-2.33983599730367,-2.50103901604263
-2.30752586832092,-2.46186928549389
-2.3195239890239,-2.46189408434421
-2.35374884549585,-2.49052756429691
-2.37744413601105,-2.50245160324273
-2.28945356136027,-2.40106281670725
-2.21505441855784,-2.30447284263976
-2.19801424038983,-2.28211094059925
-2.25563883780651,-2.32565131083703
-2.33978112565757,-2.40776504868858
-2.41203043002119,-2.47546891397605
-2.36869917312994,-2.44650503002807
-2.30948824085671,-2.40222520001658
-2.30671855819558,-2.39612861929416
-2.32248340486656,-2.40904556029172
-2.33895071191289,-2.40411426182729
-2.33180720615292,-2.37192820785288
-2.22649365799967,-2.24866081909511
-2.15525283378865,-2.15204147910449
-2.17737779479116,-2.15608795781937
-2.22307168251784,-2.20563749777418
-2.27840304242424,-2.27793874744892
-2.27812254475919,-2.30038344986391
-2.2020547924884,-2.24941390835366
-2.1298794042872,-2.22038947902925
-2.16917546841748,-2.30472206297359
-2.22841175112686,-2.40938914523731
-2.3095393552257,-2.53808035050607
-2.33599520524911,-2.60278557244328
-2.25987319362533,-2.55020461017671
-2.17263702783908,-2.4619644285964
-2.15159129645344,-2.40179416645277
-2.14714540028368,-2.34030171307429
-2.17415517721722,-2.30841622976667
-2.18955379650901,-2.26249070418217
-2.11906379579804,-2.13250521507133
-2.04968034830295,-2.03361860122837
-2.03397710588367,-2.02574009528096
-2.03476177817833,-2.07659165875469
-2.07827978725088,-2.18211728380739
-2.14536086456368,-2.28287721281251
-2.11961811009594,-2.25555066358393
-2.10089280232464,-2.21697680263147
-2.18095962226154,-2.2827724364885
-2.32468681253784,-2.41516904785414
-2.5041862170113,-2.58538232623072
-2.60903697005415,-2.69707273527264
-2.55040965754594,-2.67529970463579
-2.46281901171788,-2.6088880671612
-2.45321026381773,-2.60133112714375
-2.4731299974927,-2.60976767869455
-2.52246649110146,-2.63136020875975
-2.52218696139205,-2.60939277793121
-2.41782209998997,-2.47419285886013
-2.29909221974044,-2.30865397625271
-2.26966384834988,-2.23461630238554
-2.29751350013425,-2.22243553864282
-2.38340048429999,-2.29456386851308
-2.43470332758911,-2.35334475268033
-2.35706865370578,-2.32791231129255
-2.25122121853429,-2.29780474582167
-2.21135974857215,-2.31163510645331
-2.22264889934926,-2.35434008964995
-2.28568616401326,-2.42299753213758
-2.33191951950593,-2.46392055981564
-2.27820236577236,-2.40318992153521
-2.20434976107089,-2.31970575143566
-2.16875605785384,-2.26921451602004
-2.15626058297094,-2.2471431775649
-2.1465256587641,-2.23434639045953
-2.13527119963671,-2.23639398192727
-2.05172022228131,-2.17403734570872
-1.98197868353151,-2.1298724182286
-2.0254281167816,-2.20506223282326
-2.10497718525947,-2.3001328267977
-2.22950013720132,-2.43582107713361
-2.32170426370322,-2.50381640464526
-2.30204601826382,-2.44728837757025
-2.10093790275893,-2.47164052247141
-2.07285196640307,-2.42227515074497
-2.05172117214177,-2.40453358566118
-2.08149427686902,-2.45141168700555
-2.0822014594747,-2.47045392660979
-2.02166866510488,-2.43496533221581
-1.97523610915875,-2.39450322821381
-2.06451997320838,-2.47334481946395
-2.19081869252401,-2.59420364296478
-2.29494648660851,-2.67924318206309
-2.36636171502678,-2.74384871246864
-2.32100095835789,-2.6724291097756
-2.25292719567484,-2.58633095718399
-2.23541931537787,-2.55898769659795
-2.24780646269907,-2.56117835175915
-2.28782184295126,-2.59314562453492
-2.31502785976051,-2.61719371484999
-2.22953185167665,-2.52825218995686
-2.15102574849129,-2.44488273801833
-2.12828731739688,-2.42826245398912
-2.1498731288661,-2.48733604789615
-2.19758635867998,-2.5865732381137
-2.23915811120689,-2.66051550755254
-2.2140536808007,-2.62486226442229
-2.1864697220568,-2.57057762260147
-2.20941761043221,-2.57397069346928
-2.23853961566103,-2.60098737465969
-2.26618536484398,-2.61985771707405
-2.26196974587678,-2.60965628943551
-2.17541816945754,-2.49440483818005
-2.09887787453617,-2.38813072517354
-2.10048818807145,-2.35945277986816
-2.12599405290895,-2.37913986607595
-2.15255762944584,-2.43760509506587
-2.14120290654956,-2.47181088514038
-2.08210435553608,-2.41689891450237
-2.04117116867837,-2.34993828214142
-2.11391843196396,-2.37802467215003
-2.17591311860548,-2.43087044258445
-2.24204275573167,-2.49808413197061
-2.24617226645721,-2.50659777927196
-2.16422732225264,-2.39522241983023
-2.09070077831041,-2.29050349022235
-2.0679681281587,-2.25597788625076
-2.05139836513999,-2.25901451997122
-2.04791473737346,-2.30740476208152
-1.99002067679431,-2.34905966653345
-1.84958611196854,-2.29835444547476
-1.7271810498927,-2.26546103860749
-1.68956475135153,-2.27882083008131
-1.71346523703527,-2.33353831664148
-1.78786632087267,-2.42323373215938
-1.86800414402023,-2.52160850132262
-1.82749030493823,-2.51057185288743
-1.78957667379319,-2.47130285904752
-1.85494360059631,-2.51601203128316
-1.97831703380697,-2.60276183693553
-2.13528837755132,-2.72615197001721
-2.25189236379705,-2.79149845099711
-2.26121636621579,-2.72380149463627
-2.24051290057491,-2.63562670857569
-2.26869417958171,-2.63120064412747
-2.30222605639572,-2.66291742275138
-2.34456911808207,-2.72218624690378
-2.33923577757916,-2.73663455764516
-2.24436519377132,-2.64093837980411
-2.13077881489752,-2.52801052133876
-2.08795000593871,-2.49438532621212
-2.10411328711748,-2.52362702262945
-2.16467630375986,-2.58537065807107
-2.19517860716992,-2.61883134114038
-2.12102767435687,-2.53527492192005
-2.02902905198956,-2.43912357651885
-2.00132203440855,-2.41250893732005
-2.01649147301947,-2.42861664638359
-2.07068686564596,-2.48959327002736
-2.11162437242472,-2.53052749444331
-2.07039269584564,-2.46973557244152
-2.01388979371217,-2.38528948023926
-1.99539936219141,-2.35573195854068
-2.00197034674829,-2.35425570637496
-2.01256081383085,-2.35894135549151
-2.03815702758485,-2.35799385435686
-1.99714295398539,-2.29364393423149
-1.96045810158415,-2.24349280882497
-2.02068792672127,-2.30957241809978
-2.09086509984518,-2.4024852618194
-2.17882096824898,-2.52209166775981
-2.22526461387678,-2.57568260475688
-2.17355582390768,-2.50996211655659
-2.07170128218068,-2.02322957912543
-2.05333267224566,-2.01784135973083
-2.05740013823288,-2.02677040002574
-2.10765470616367,-2.09294486675928
-2.13102107622506,-2.13667930408289
-2.09375223489643,-2.13317321121455
-2.05364689247924,-2.09885006287727
-2.10349211437328,-2.13759374297617
-2.19390936652599,-2.19375156184582
-2.26124597511908,-2.23566617842585
-2.30823597829263,-2.2770325204679
-2.24292988867664,-2.22004452035822
-2.16095782196208,-2.16805411846619
-2.12751143713211,-2.15216156160143
-2.13388501828733,-2.17251262945612
-2.16692948639283,-2.21830869391808
-2.17333741120006,-2.24886565604187
-2.0939958892862,-2.18822019966626
-2.02967665347329,-2.12632965819534
-2.02707433505216,-2.11621232977677
-2.09485706684284,-2.13877349670655
-2.19413191645163,-2.18959607804667
-2.27508091086943,-2.20210366747196
-2.24869448352725,-2.13708698874037
-2.19846288084963,-2.07131018803885
-2.20738987200625,-2.05431140091295
-2.23399401161372,-2.0567546978216
-2.26053801949457,-2.08377539633151
-2.257676090035,-2.08507440239778
-2.17118610013994,-2.01957229560194
-2.09237990555862,-1.9789265283723
-2.07317279327788,-2.01938622406535
-2.08449190308914,-2.09881564101233
-2.13875139380337,-2.18120197252547
-2.14656374565776,-2.22317200562838
-2.0957423799195,-2.18902927029531
-2.05128747230845,-2.13543987317841
-2.10099002598357,-2.14571440169377
-2.14948553728138,-2.15816405554047
-2.19887124870607,-2.17027962129864
-2.17636568665165,-2.11727328554944
-2.05614759807084,-1.97226321650754
-1.93201251880756,-1.84783029898212
-1.8416733415143,-1.77668096125077
-1.79519383871385,-1.74800789115065
-1.80046907303472,-1.76500850971321
-1.82389490459516,-1.77917879120601
-1.75646911108656,-1.70296501870861
-1.69933336445625,-1.6409879221509
-1.70197173526521,-1.64781279118822
-1.7548429641598,-1.72327448762944
-1.85512662618821,-1.85632465244247
-1.9574025393647,-1.95969441534649
-1.95882861755629,-1.94881991491734
-1.93092719668499,-1.90901864754224
-1.97179404608208,-1.93142340603324
-2.04917618540349,-1.99984658178453
-2.17038511935815,-2.10592331956748
-2.2624775364617,-2.19304010802087
-2.24005178314816,-2.18844680831941
-2.21472777760906,-2.15863213047635
-2.23729637731471,-2.16475964444127
-2.28155559189486,-2.20225472099745
-2.33416415841697,-2.23652929041434
-2.3586571779041,-2.23538205054568
-2.2976432616271,-2.14267952129822
-2.20389364972003,-2.04655590006176
-2.19553546105647,-2.01637122960346
-2.20800422042585,-2.03364769245124
-2.25336937335566,-2.08633527065723
-2.27577533786386,-2.1290765841313
-2.20492500906913,-2.10411829453622
-2.12247346501523,-2.05308503429948
-2.09601198165681,-2.06373650028211
-2.10139747680788,-2.10671623274851
-2.15131484549831,-2.16177092006141
-2.18017049419017,-2.17842539341371
-2.13162733250132,-2.09194431531598
-2.07863144649601,-2.0034193694892
-2.07525240310579,-1.95827896812603
-2.10409213299659,-1.95667771543588
-2.14743385531007,-1.97497311429403
-2.19048827140795,-1.99985389929648
-2.15404130069619,-1.96441393895859
-2.10215683822276,-1.92037552121325
-2.12008110403273,-1.95603527433025
-2.13673549471021,-1.99103916127025
-2.17853066863188,-2.06667415171101
-2.18820457889883,-2.11255904831867
-2.10825336459728,-2.05311720658855
-1.94636570544886,-2.13707828601647
-1.93182495659373,-2.0976229122522
-1.94186529994429,-2.08104695951866
-2.00249518516306,-2.13598393502677
-2.02645618627984,-2.17603776209609
-1.99366912102313,-2.17526475106103
-1.94621363852122,-2.158961802912
-1.99320626280124,-2.23531956523228
-2.06272155493253,-2.33711366896153
-2.12059208815778,-2.39978523750393
-2.16854542090054,-2.44395618123779
-2.13207752206409,-2.37511727968954
-2.07531786919501,-2.27275858272581
-2.06131553386572,-2.23129725954282
-2.07308605564527,-2.21239341713245
-2.10869640465702,-2.23060155193669
-2.12151589401622,-2.21480880290778
-2.04146531363395,-2.09605820061998
-1.95695987057627,-1.98809341723512
-1.92905548514292,-1.95127816167813
-1.9435991416018,-2.00584176562471
-1.9857173661719,-2.10794308497597
-2.02510881398781,-2.21046012353514
-1.99753624213021,-2.2157038753
-1.97282470896167,-2.19832604421936
-1.99290209655086,-2.23390610718412
-2.0169833878968,-2.27997917780689
-2.0307011637529,-2.31000499569416
-2.01996753325532,-2.30831158370511
-1.93118983320272,-2.22474412948671
-1.86241037250135,-2.15422670114745
-1.8658386633868,-2.16612025036434
-1.92065381812897,-2.1976840981949
-1.99575223669184,-2.26638115469442
-2.03264457084305,-2.28064164581172
-1.99372786428938,-2.22930177942007
-1.93279369930248,-2.17157257534436
-1.93761235524803,-2.2035609209575
-1.95314493534317,-2.22191697267194
-1.99335442881237,-2.23721393507369
-1.99557462244457,-2.16522650936776
-1.92436805701533,-2.01375371641135
-1.87139438629396,-1.90199515325939
-1.86515246225081,-1.88141550770174
-1.85781913326453,-1.91761072948859
-1.85938966331636,-1.9912174308757
-1.85042955987605,-2.04618152260768
-1.79103096100832,-2.02197727392113
-1.7590753301738,-1.98479446584145
-1.77034559585671,-1.99625903055168
-1.79666519852281,-2.03253381941215
-1.83358368047547,-2.10153043487358
-1.84959216139875,-2.18336701523285
-1.76388813805355,-2.16142414342354
-1.66894685574073,-2.13877951982944
-1.68431508639306,-2.20721240560775
-1.76802175045527,-2.30087273012071
-1.91722101633516,-2.42142268730772
-2.04327397326652,-2.47740610101672
-2.07109002962915,-2.42801274341419
-2.04928725002213,-2.36254211422838
-2.07000493073894,-2.37679014654216
-2.09660096028321,-2.41121677896726
-2.12622910827065,-2.4514313003928
-2.10899288639795,-2.46412128547724
-2.0120255903219,-2.36469566274244
-1.90585797643257,-2.24601018152162
-1.870290941518,-2.21750626680256
-1.90926354074891,-2.22859375969598
-2.00854318200506,-2.27484194817682
-2.09494062220277,-2.29162015638432
-2.0823393828559,-2.20079463878004
-2.04795076715177,-2.10131191147102
-2.04252262570757,-2.08561507966734
-2.04165523800946,-2.11077984893735
-2.05463266899502,-2.19414375514274
-2.03877022753077,-2.23146011915171
-1.93518899923309,-2.17522716378344
-1.8461911935896,-2.10704855060246
-1.79606453436791,-2.07751843823157
-1.77060369947583,-2.05813321866719
-1.76636366885136,-2.04810721795659
-1.77747999802488,-2.03988774162459
-1.74252168656273,-1.97904315787454
-1.73801929806348,-1.94519774647604
-1.83215650296386,-2.02287626957201
-1.92910314838317,-2.11906399389242
-2.04648480752642,-2.23472215186733
-2.097643926857,-2.29252454695118
-2.04931282866599,-2.23413949142255
-2.43063191269075,-2.25293943482107
-2.41285949173402,-2.24974807973383
-2.42157977926368,-2.26255321035301
-2.49216978107528,-2.3312515443891
-2.51358688618811,-2.35953398181591
-2.46462026818919,-2.32488955642344
-2.40288335793293,-2.27232391941049
-2.46010703250588,-2.33392619590756
-2.54723509591701,-2.41719117495683
-2.63110214398426,-2.48324280331975
-2.69474047727282,-2.52412400094504
-2.65300019659936,-2.44649322607634
-2.58323045321969,-2.35889065213801
-2.55222909563922,-2.33226916956661
-2.57113833777365,-2.33970341830437
-2.61498094543197,-2.36710177990806
-2.64445833093452,-2.36979235058634
-2.55227057196794,-2.27385387211932
-2.46102423157133,-2.18507532631975
-2.42210353467989,-2.18130359480033
-2.43892206075525,-2.2428297004776
-2.48884891560723,-2.34675597132993
-2.53676491270668,-2.42477705006684
-2.4918643704114,-2.39812093763795
-2.45483337302298,-2.34042518136279
-2.46154316322373,-2.35168142386433
-2.48047082906522,-2.38552702874254
-2.48215433293885,-2.433857831458
-2.46944754634672,-2.44460783305498
-2.35754607718924,-2.35958086338144
-2.28028098838485,-2.28980081564876
-2.2911322056969,-2.2929195565877
-2.37043417159781,-2.32418840998902
-2.48925672068907,-2.35488079662445
-2.56992096424345,-2.31993982653634
-2.55512845462252,-2.22302961229666
-2.50039797436055,-2.13338734580805
-2.51674877548961,-2.1645647751834
-2.557640554854,-2.21856452287519
-2.61483978969084,-2.28589248414362
-2.62075845047362,-2.28684798278443
-2.5166420387924,-2.19324812390704
-2.42584180450325,-2.09881893516631
-2.37973407332175,-2.07012800927723
-2.38120558547275,-2.06144018689172
-2.42009756342884,-2.06663126433927
-2.4423079940875,-2.04605299968333
-2.34396872449303,-1.95572214908929
-2.23354147872359,-1.90337328013379
-2.17648207618779,-1.9440923000008
-2.17265913109771,-2.04897962969526
-2.23382267466555,-2.18039892677085
-2.30507503284329,-2.2702949801368
-2.2678237499584,-2.2320248069106
-2.22742799077557,-2.17036595523899
-2.28278688462403,-2.19011287816503
-2.40372518913327,-2.26731886774115
-2.56412757763421,-2.39548476030849
-2.69790495567203,-2.47982315980649
-2.70175710233668,-2.44272055019423
-2.66037640201919,-2.37750035618695
-2.66547040619746,-2.38150579869295
-2.68415942867961,-2.41228760555926
-2.71065760425136,-2.44279754221961
-2.69254206279987,-2.4321887900569
-2.54996019796711,-2.3170301800708
-2.38548157846037,-2.2055647298675
-2.31806526456497,-2.19330810645784
-2.333737093769,-2.24459076191234
-2.43067390245951,-2.35980783024238
-2.52369403937175,-2.44451217775281
-2.50926068589962,-2.39793007913123
-2.47894220509977,-2.31472208569441
-2.49134044985048,-2.30561653040883
-2.53120819939195,-2.32598668243212
-2.58006124160761,-2.3673782959783
-2.58865319324975,-2.36377873491032
-2.50360566109436,-2.25950172747519
-2.41928566460846,-2.16825897684027
-2.36681081916232,-2.13143875483502
-2.34228127311695,-2.132147833136
-2.32608006457954,-2.16097802279833
-2.31520786991261,-2.19905661484252
-2.24725640796922,-2.17447600104167
-2.2035821948186,-2.15583171828555
-2.2717314927769,-2.23782883998652
-2.37147090699558,-2.3030771015605
-2.49672241820087,-2.37830562772217
-2.56326842023958,-2.38467985325414
-2.50360412127253,-2.28550817631481
-2.27504186706297,-2.09178939615288
-2.22909960927718,-2.03798647359824
-2.20686915171559,-2.01979324813711
-2.25007249525032,-2.06290888112227
-2.29368997216196,-2.07620733273405
-2.28502479151426,-2.03841038532987
-2.26669444962678,-2.0003353609435
-2.35321966146315,-2.07547901404539
-2.45793406054415,-2.1775289889402
-2.5611380663534,-2.26685833085788
-2.62114593753934,-2.3316666020253
-2.57619784724658,-2.2815924132467
-2.49990077013816,-2.21793719384909
-2.47017536219845,-2.19248505982464
-2.48825348065616,-2.20038781973175
-2.52943243214295,-2.24603052604644
-2.55662818236379,-2.27259427619257
-2.47552444326126,-2.20118274261538
-2.3931172845921,-2.12550560329741
-2.37092672160561,-2.09190830802341
-2.39862569180872,-2.10884067209818
-2.4444350901162,-2.16132002174097
-2.46755738735468,-2.20608815271173
-2.39965379985188,-2.16994165467141
-2.3292935704396,-2.14213695215789
-2.31571441835715,-2.14459968233008
-2.32171834885911,-2.17082389466028
-2.32433928607905,-2.20437111585731
-2.32074397518917,-2.21591740320159
-2.23140652448262,-2.13928772188445
-2.18568564649546,-2.08372708836596
-2.24184854276895,-2.1025993647703
-2.36176216789471,-2.14089081279943
-2.50416841070685,-2.20779626183023
-2.58499952069915,-2.21927239405346
-2.56575783630657,-2.16863714826435
-2.49755654517383,-2.11447345035755
-2.47373586847648,-2.15837456017688
-2.45646454321435,-2.1988990417164
-2.46222268428312,-2.24649845762386
-2.40931837948617,-2.23856969679783
-2.26165548089111,-2.11995240691633
-2.16126070376143,-2.00973669668385
-2.15796971783818,-1.94598897482259
-2.2025035652029,-1.91417493917099
-2.28883953528305,-1.92575352023216
-2.35347171250978,-1.9293843403261
-2.3161966930755,-1.84608988687833
-2.26194614776074,-1.77990324047274
-2.24457785224758,-1.77031190261871
-2.25871596450075,-1.81711457706874
-2.32228662031886,-1.90451996556165
-2.3801170416652,-1.99520722363837
-2.32515181922676,-1.97622076782702
-2.27800027378554,-1.95765555405812
-2.33151215789306,-2.02098740103955
-2.42744118868574,-2.14153629923886
-2.56228319482735,-2.28749311124582
-2.64178680465673,-2.3871956026552
-2.59721489463205,-2.35317610981788
-2.52380846051406,-2.3000482305583
-2.50880065011733,-2.30272335765669
-2.51078923071075,-2.323009080185
-2.52709296829865,-2.35606816072373
-2.5087670753923,-2.3536705012134
-2.3588796374857,-2.25432012590321
-2.20939498272763,-2.13261835627004
-2.14747657064262,-2.08560155322249
-2.16533998278084,-2.09544202557224
-2.27363501408519,-2.13964153952066
-2.37752717922286,-2.16242180357
-2.382825060413,-2.0977666969006
-2.36651190746669,-2.02421293616049
-2.38641055031123,-2.0239056847213
-2.41562138995631,-2.07125451819118
-2.46614487746249,-2.14269678503299
-2.47391288294468,-2.18418548093385
-2.37800100478308,-2.12626363570619
-2.28377646306281,-2.05291921606752
-2.22943645254269,-2.01580775188073
-2.20577492178123,-2.00345138190746
-2.19134853588453,-2.00214345796797
-2.18341693908586,-2.00978723523763
-2.11885097068969,-1.95773729460125
-2.0714308424651,-1.92966208505679
-2.14832495060251,-1.9896952849074
-2.25811296028924,-2.06665644652548
-2.40825226056718,-2.17426147138246
-2.48983737581768,-2.23896054583426
-2.45311484662111,-2.20288237338091
-2.13099469845758,-2.19375278909109
-2.09884996905435,-2.1396927137326
-2.07823358516675,-2.11298609994799
-2.11614103626233,-2.14982805314804
-2.12660593992305,-2.17861086660326
-2.08298939077213,-2.15482797973522
-2.03763800345248,-2.12834886422453
-2.11618969229472,-2.21809438866972
-2.23774694415153,-2.33934986379233
-2.32568959866369,-2.43766100113789
-2.39682239178503,-2.49961152326438
-2.3511167509497,-2.45015530631423
-2.28660987489455,-2.377246651781
-2.28045933196007,-2.35340487649027
-2.30518213046204,-2.38039395601075
-2.35803500889734,-2.4257781245163
-2.40639408938902,-2.45649197316588
-2.34733565647558,-2.38904498020108
-2.29173536363367,-2.31571214496589
-2.29272079470287,-2.30768794085179
-2.32892644248386,-2.34855692579026
-2.38766480662176,-2.41398968497775
-2.41652974071588,-2.46532710321861
-2.34233192075923,-2.42340069726511
-2.26807361464851,-2.38025112796921
-2.24514194406134,-2.39015883188679
-2.24907105363227,-2.41800555417062
-2.25019070366446,-2.44979176951245
-2.22820488350959,-2.44917477821163
-2.11883457570443,-2.35671706231127
-2.03690683069318,-2.27197569217467
-2.04041058204819,-2.2538257814356
-2.09492874073747,-2.27336357419182
-2.19070341461364,-2.32821709052405
-2.24821981382425,-2.33885445980345
-2.21617339426333,-2.28927451143545
-2.16080863946775,-2.24578565123925
-2.18057941225823,-2.31231855965026
-2.2133167993021,-2.39245818037828
-2.25591580561014,-2.4886612502374
-2.24886052736146,-2.52636648872983
-2.13457946138637,-2.45161855360043
-2.03948169441093,-2.35564133684338
-2.00924875681216,-2.28186133277939
-2.01807976193831,-2.22685093410481
-2.07988506893235,-2.20495446521566
-2.13686142309388,-2.174095881135
-2.10267356600186,-2.06946702033424
-2.069229622258,-1.993516249363
-2.05218957913816,-1.98736271522946
-2.05624360831994,-2.03653346712602
-2.08500903557877,-2.12671252292263
-2.1232816572484,-2.21665509179931
-2.06607434845551,-2.20139279401828
-1.99458858799552,-2.17179413610796
-2.01553505519008,-2.22711350971853
-2.09077470004492,-2.33466844936117
-2.21818470670306,-2.48564592144247
-2.32929295142622,-2.581084575642
-2.35291640328428,-2.55974962963973
-2.34060465304927,-2.49271409327023
-2.36281544770379,-2.48353900060116
-2.39503006489639,-2.49302442975289
-2.42240908727694,-2.50936767291067
-2.40659495865264,-2.48661993421784
-2.28057965505056,-2.35822696784886
-2.14782515678607,-2.22677009838519
-2.09959015802254,-2.17704075423747
-2.11251253751749,-2.19766717353325
-2.17075218047762,-2.28582315125938
-2.21739234251519,-2.36440367973633
-2.16998699910885,-2.3393605254787
-2.11830236750244,-2.29518000684865
-2.14102535646893,-2.31748846464638
-2.20984683889224,-2.37351901466654
-2.30275094883285,-2.43274069717319
-2.34941561143899,-2.44693304523784
-2.28153225987722,-2.34719211510711
-2.2188809253313,-2.24627432063884
-2.18850825403857,-2.19626784617792
-2.18638083241394,-2.17883814718806
-2.2003929700134,-2.18678756787807
-2.20454264674468,-2.18634893050623
-2.12138880379197,-2.13357195719123
-2.06176079856563,-2.08248529539873
-2.11268527238916,-2.15132476921926
-2.19529816025625,-2.2432879125615
-2.30721961686241,-2.34738504285678
-2.3712284396307,-2.40147857401985
-2.3363473550526,-2.33941427750205
-2.43534561055009,-2.19376244924913
-2.40139137761458,-2.14672102358121
-2.39996666144268,-2.12788352481778
-2.45686149103478,-2.16531985990046
-2.49675997155078,-2.18656171960913
-2.47561368837525,-2.15715880847437
-2.44838347681475,-2.11990472153454
-2.51426333366651,-2.21296592443418
-2.60095094194591,-2.33639286065378
-2.68260264976137,-2.43335231793589
-2.73503866755913,-2.49394698668596
-2.66616900803431,-2.43594565625273
-2.58907155477026,-2.34506881477776
-2.57787887039642,-2.29903264538959
-2.59972125287528,-2.28297238581778
-2.65713211922411,-2.2933904833136
-2.69360878261861,-2.28699556614393
-2.6263829390128,-2.16944131714987
-2.56485755420088,-2.05512778305644
-2.56745873210136,-2.01698844250807
-2.62730904386431,-2.06111285725818
-2.70875205419948,-2.1593751101058
-2.75233964494861,-2.26484726104625
-2.68642654731799,-2.27250385425238
-2.60054534192397,-2.26136151583069
-2.58481882312901,-2.2995095153813
-2.59745515514333,-2.34339704265503
-2.61603236974632,-2.36777438501941
-2.61267624739851,-2.36699680324531
-2.49840131511689,-2.27259012175959
-2.40261491699958,-2.19788522281663
-2.38139298180198,-2.18668389455607
-2.41739598865735,-2.22922395300815
-2.50532427271653,-2.29866919189081
-2.5702280074014,-2.33430547621228
-2.53848443387363,-2.29438344595623
-2.47981100256342,-2.23642965668288
-2.52305850768747,-2.25312715560672
-2.55418186376431,-2.27047314903499
-2.59006773899111,-2.30002628410876
-2.5569422216008,-2.27657710081357
-2.42092458344329,-2.16115687526118
-2.32507237164657,-2.06334462202408
-2.31901022010681,-2.01742871972777
-2.34701337184365,-2.00587638117795
-2.40420745657726,-2.03571999815564
-2.4414434411229,-2.03932399008892
-2.36711394058604,-1.96131106451446
-2.29785969901506,-1.8830575369798
-2.27400727542701,-1.86284684275316
-2.2907501859036,-1.89314605746285
-2.34707095782775,-1.97537946415008
-2.37692970933122,-2.06969422655182
-2.27422334453443,-2.06858844671648
-2.16867727899444,-2.04069917733866
-2.19959654746007,-2.10102434301194
-2.30568417218729,-2.20018589772851
-2.4982844410649,-2.34239338944689
-2.65875858109233,-2.44101064189891
-2.68713702485928,-2.42859653289794
-2.6688330343765,-2.39327066862336
-2.70852571072035,-2.41448172874981
-2.75649986129246,-2.44558447683108
-2.80541669112233,-2.48422688721797
-2.82393185597247,-2.48627809520834
-2.71389013849738,-2.38159186339082
-2.58984903855996,-2.2575350360825
-2.56168820721958,-2.21776788066931
-2.5910180111461,-2.2300027610206
-2.66014738999271,-2.28085514578277
-2.69980228116211,-2.30836247137048
-2.62185966379052,-2.23744992570793
-2.52191567366288,-2.16415407024193
-2.50578941829027,-2.15838157098483
-2.52902012206836,-2.19213365559355
-2.59086257228824,-2.27189313846562
-2.61598384556928,-2.31617053652633
-2.52754315428377,-2.26644176109882
-2.43908619155254,-2.21386800112459
-2.39801950838086,-2.19843563759122
-2.39470967632781,-2.19901236701244
-2.41441614718278,-2.20510098165719
-2.44555292805449,-2.19811077379557
-2.40428284240998,-2.12810515244493
-2.37639085235638,-2.07567539711134
-2.46116284666641,-2.14073601515829
-2.54464106408019,-2.23726143773951
-2.65138912775923,-2.35586513450155
-2.68260656686497,-2.41478729104507
-2.59741573504699,-2.36816315243363
-2.38337949188952,-2.05191739905023
-2.35010355257292,-2.00868966349347
-2.34595724647455,-1.99455181783032
-2.38785458018094,-2.04379891217207
-2.39399014465921,-2.08863884565639
-2.33745038729184,-2.10174081779857
-2.28506732320277,-2.08974865529165
-2.36790499050933,-2.17437468243436
-2.49670407882224,-2.26463529243456
-2.59075744029599,-2.32871948189544
-2.65611122514651,-2.38049785998651
-2.58946268980734,-2.3215587490375
-2.49484740252875,-2.23958282501466
-2.46122961370113,-2.21221763968897
-2.46212029908374,-2.21426050754537
-2.48426637622429,-2.24523637712429
-2.49160281423924,-2.25596512862236
-2.38213205288223,-2.16064726656254
-2.28711718448782,-2.06641881878948
-2.26777052362335,-2.04502962796578
-2.32931359803046,-2.08241016292397
-2.43804292084091,-2.1630995509693
-2.53921186923028,-2.23418411476989
-2.52868464557208,-2.2239889145733
-2.49720266909727,-2.20216088496083
-2.52412445899643,-2.22582314400971
-2.5611420170079,-2.26500361932891
-2.58103154225897,-2.29591443450675
-2.56333268118154,-2.30235151588187
-2.44874000456923,-2.21355329244095
-2.33987220138601,-2.14499003465731
-2.30658680372158,-2.14826870997254
-2.3237465197217,-2.18384404446154
-2.38294413912766,-2.23516519828414
-2.41645384223367,-2.24609628005585
-2.37387809085836,-2.18570149148136
-2.32574478849982,-2.13042548756927
-2.38285503228782,-2.17682641782642
-2.45067398017902,-2.23635676452066
-2.5254736505456,-2.3100671687368
-2.55100258871445,-2.31239464234382
-2.47573543656682,-2.22263076203082
-2.39675827072878,-2.14172957281209
-2.36534676556555,-2.11315691023357
-2.35555403837701,-2.12540000819763
-2.3577522637436,-2.18072710670236
-2.33857485153193,-2.21696291409207
-2.23111531764662,-2.17413764231782
-2.15849340208103,-2.11238003850871
-2.17966760256431,-2.09826674288449
-2.26793982821456,-2.11136595791469
-2.39570098779852,-2.15718038951734
-2.51241777997719,-2.19848212415892
-2.49106844202486,-2.14353856914952
-2.43921541695726,-2.09967581932962
-2.44717132228677,-2.15782383784096
-2.50548711097459,-2.26411464489715
-2.62147410447657,-2.39838120840796
-2.69412240092286,-2.46662522671209
-2.66560806838001,-2.42612410638103
-2.59128072280309,-2.35423900436145
-2.59323091446079,-2.34614928700725
-2.61743655594881,-2.34516794115757
-2.64103628564646,-2.3622781651109
-2.62246043101671,-2.32804723667075
-2.48218656228774,-2.1912458846657
-2.33227137799197,-2.05115630094716
-2.28791269167373,-1.99795562441829
-2.3138445735006,-2.01819897124969
-2.40268156081035,-2.10626238996997
-2.46990192759672,-2.19643810043759
-2.40428753224881,-2.19865089225445
-2.32818737104198,-2.1772662337204
-2.33110084006119,-2.20293906847566
-2.39105411503046,-2.24479376163868
-2.47872422980424,-2.28627538559536
-2.52107914569795,-2.26808283866522
-2.45189205869608,-2.1473813962906
-2.37632598852562,-2.03073283920402
-2.34386240066289,-1.95767704152188
-2.33749896552358,-1.91225742117822
-2.33333354159355,-1.90097162713038
-2.30783223653136,-1.90567347655398
-2.21654200158766,-1.88959094880598
-2.1408380175174,-1.88828697062977
-2.20131090352864,-1.97791276224103
-2.30287275000411,-2.08582294271486
-2.4218483787367,-2.21410445936137
-2.483033227732,-2.29353075925827
-2.42569919648962,-2.25119937694781
-2.15283075827956,-2.02063861241711
-2.13570981750986,-1.99595796319956
-2.14412265040816,-1.99019704389677
-2.2183531575845,-2.04748920765919
-2.2622598972705,-2.07787124542951
-2.25347669005373,-2.05336932439634
-2.21927955017118,-2.02015406376401
-2.26644682858115,-2.06723985664885
-2.33108115376914,-2.13208377704696
-2.37700768599235,-2.19173235729345
-2.41493169258543,-2.23516375818858
-2.34965571385244,-2.18558830928242
-2.27891659060392,-2.12141572051716
-2.25479510808448,-2.09617044357482
-2.27364083368006,-2.09865852928686
-2.31250736746995,-2.12503050242764
-2.33807860966728,-2.14303980283965
-2.26419005102237,-2.05510992233873
-2.19247964635736,-1.97400729008652
-2.1765145131397,-1.94805676875595
-2.22594471885682,-1.98551774082883
-2.30831564963185,-2.04007790767723
-2.35971998698482,-2.09199517778176
-2.3154817915249,-2.05967165549413
-2.25455611471133,-2.01679857897331
-2.25833428568017,-2.01826209772443
-2.28518896291836,-2.0231660177952
-2.31581794012406,-2.01616966694343
-2.33097741979324,-1.98216849261414
-2.24797394192328,-1.85476952589649
-2.19115426414739,-1.77072513326666
-2.20977265474803,-1.76479253929316
-2.24337512439333,-1.80879086821604
-2.29200661596022,-1.88723376691631
-2.27891329770656,-1.91633679840521
-2.1949020313895,-1.87425242945178
-2.13214565898867,-1.81916307292322
-2.17576693091333,-1.84953633118576
-2.22677608431396,-1.90701919706012
-2.27780429258174,-1.98204772891686
-2.24549376848928,-2.02109273162963
-2.1121440370766,-1.96355445034059
-2.00225700473645,-1.90117017962418
-1.94806604146702,-1.88166608942578
-1.92692134829291,-1.89431379598143
-1.94754759674954,-1.94312861566441
-1.96338658169978,-2.00002186702651
-1.88581609064083,-1.98109571842975
-1.82544405505114,-1.95525164842815
-1.82755557473687,-1.95821007208384
-1.87765593090049,-1.97631137002933
-1.9677585955278,-2.02438851145621
-2.06203063531614,-2.06427048757778
-2.04560787109382,-2.01112725307633
-2.01218304010747,-1.94272881419267
-2.06419750582267,-1.95525277801384
-2.15959987752527,-2.00887171179586
-2.2973585478515,-2.11592469659964
-2.39868018510164,-2.18809197858888
-2.37761380544804,-2.15532046279442
-2.34217427262037,-2.09150152265337
-2.35916934052469,-2.09488603528348
-2.40279268586763,-2.11729557388509
-2.4550250810356,-2.16383472995183
-2.47114196377058,-2.16626122060235
-2.3872257803953,-2.07282105267306
-2.28547082738138,-1.96070693132146
-2.26873044059934,-1.94431473900044
-2.28783487549642,-1.98942810505945
-2.33910798028576,-2.08330371133585
-2.36990667207451,-2.15632208404582
-2.30654105950579,-2.09368489542115
-2.2208695479033,-2.00434882501317
-2.2012814715484,-1.96948925382365
-2.20910734273477,-1.9665249650281
-2.24569086389828,-2.01643202056896
-2.25659871855424,-2.04841451446185
-2.17564951564223,-2.00415807615779
-2.09983703086965,-1.95031968335068
-2.07507740592611,-1.93282675968983
-2.07928840766638,-1.93213376736606
-2.09943322690248,-1.94045657171355
-2.1158982403821,-1.96101132890882
-2.0796477889214,-1.92640789721369
-2.05481604911123,-1.89144502836271
-2.13850784911075,-1.94140307788758
-2.2159643513624,-1.99687056500924
-2.30523156456886,-2.08245230201799
-2.34916651336985,-2.11294170745311
-2.286509515794,-2.05139350809773
-2.36062491363836,-2.19565642055166
-2.3418575450742,-2.11363020591049
-2.35003729132061,-2.07306868713549
-2.43276889596329,-2.10946133187729
-2.50352361002049,-2.14212946582243
-2.5083290430743,-2.13337719887443
-2.48341400900972,-2.12545944222429
-2.53985294510798,-2.23304170863012
-2.59064606140993,-2.36994456563565
-2.63760558515347,-2.48493146900927
-2.67047744708408,-2.55263239246099
-2.59242221197937,-2.49681685924718
-2.49199007426585,-2.41360064073822
-2.45398089911081,-2.36739503473259
-2.46222622927543,-2.36965185377848
-2.49498309785486,-2.39978198312013
-2.50953636855284,-2.40946239688163
-2.41104872925292,-2.29824665244326
-2.32513471063598,-2.19269718823222
-2.30736588491117,-2.1473393480601
-2.37395825586689,-2.17605466469414
-2.47975115230556,-2.25587673773054
-2.55425788893528,-2.34378875101846
-2.51458834129578,-2.35488108648144
-2.44611915184974,-2.35518535710545
-2.44351683879064,-2.4029237956581
-2.46604337467419,-2.46654767176996
-2.48552813782287,-2.51972113532105
-2.47817213627877,-2.54484217181704
-2.37671304285859,-2.45922212355576
-2.30737900169265,-2.38110254972567
-2.3267003553731,-2.35959651797101
-2.38903646169552,-2.35889141404632
-2.47977018232939,-2.39802998611768
-2.52187381851194,-2.3939144429576
-2.48273341685368,-2.32723752754087
-2.43812453752412,-2.26604294614054
-2.48827519473042,-2.31449235822297
-2.52837154397552,-2.37716261011347
-2.57192656782132,-2.48046842518726
-2.53709890298686,-2.52733471736588
-2.40777333481398,-2.46154143836612
-2.29416050623837,-2.37022569558656
-2.27513120304001,-2.31306370984014
-2.27464404536627,-2.26564400862181
-2.29341334706747,-2.25011088494959
-2.27841582899641,-2.21441303473995
-2.15484350450821,-2.08545310314435
-2.05957471616408,-1.96917695302599
-2.05688714517501,-1.90967720330293
-2.11414425284712,-1.89963736744012
-2.24276761919462,-1.93459327867656
-2.37766223443526,-2.00055671699028
-2.38824917895522,-1.96607185048618
-2.37908696768229,-1.94895638846939
-2.46231214389704,-2.04916492251208
-2.55860985046753,-2.21267866825238
-2.68505552450794,-2.41395543921685
-2.74669155042449,-2.55179050367855
-2.67538338007325,-2.56634243062087
-2.58318003809885,-2.53447075866438
-2.57209242406121,-2.5553282387334
-2.59048564825019,-2.57347405575467
-2.62840219774342,-2.59239377510328
-2.62938386232652,-2.58080234795553
-2.49826381083764,-2.45303620087444
-2.3526452542386,-2.30558053772557
-2.29339672559337,-2.24566839380124
-2.30463450052505,-2.24666439255754
-2.38089764949657,-2.29695982232939
-2.43755835243906,-2.33940958398998
-2.39026681737827,-2.31558899862902
-2.3304580412787,-2.28784991059338
-2.33356230391507,-2.32719546025788
-2.35664592741047,-2.39386743392133
-2.41581236760699,-2.47144219476002
-2.44039205896727,-2.49733734447901
-2.36381020968979,-2.40601136336986
-2.28020895911055,-2.31700624783776
-2.23133173440052,-2.27342848652972
-2.21822541096197,-2.26876628449203
-2.2162112660555,-2.28145864038068
-2.23179648189505,-2.28938010956155
-2.19599130914758,-2.22352152185279
-2.1835690750567,-2.16746059850545
-2.29220588323746,-2.20777588457798
-2.40663964735739,-2.2711166614195
-2.53326386316044,-2.3752243287814
-2.59592394454218,-2.43774194635203
-2.52712744309576,-2.39172455510888
-2.28245110903269,-1.81428839853396
-2.25578364630151,-1.74943958387317
-2.27210252157739,-1.70966624854999
-2.34059259298251,-1.72516689094552
-2.38864009842946,-1.75996596647082
-2.366503873871,-1.78050321727377
-2.32256477770256,-1.80008612667895
-2.36302082954133,-1.92011083266772
-2.42133952797097,-2.05131279452418
-2.47078130038149,-2.16174320911161
-2.51523181605056,-2.21632217455907
-2.45446472845177,-2.15293242732546
-2.3952473453997,-2.06769427423502
-2.38500185214084,-2.02692366407539
-2.41375244354993,-2.03198609152195
-2.46843545216223,-2.06244368261978
-2.51120006898889,-2.06571601043262
-2.44907259933351,-1.99476269784898
-2.39239365056005,-1.92297376266986
-2.37663699684293,-1.9263758736145
-2.40995667470577,-1.98886174491578
-2.45880746699972,-2.09646600536342
-2.48412531855024,-2.18376626761093
-2.4136994323169,-2.15444935067144
-2.34340662911919,-2.09314908942797
-2.32780189137162,-2.085187995977
-2.33120094844098,-2.11013168612713
-2.35115113015097,-2.14440570657616
-2.35095214297801,-2.15896523624418
-2.2499401908769,-2.09171009647204
-2.17614852496591,-2.0338940301078
-2.18015542763639,-2.03541589875822
-2.22996337594352,-2.07854564357405
-2.30964372970266,-2.15872890274782
-2.34157712590511,-2.1987482996124
-2.29764079950727,-2.1614510507085
-2.23189207649992,-2.11315335031331
-2.25891965691189,-2.1365472163723
-2.30641958013574,-2.16421171374166
-2.37800362390701,-2.20321091297124
-2.39201519004006,-2.16910987647783
-2.30455439083853,-2.05786132671384
-2.22000316212538,-1.95412311985413
-2.1887231495552,-1.89744756964536
-2.19262708108346,-1.87408017072591
-2.23865613109749,-1.88505814616031
-2.29475506882841,-1.88756362320774
-2.25122350717372,-1.80471578618035
-2.20753048787741,-1.73303662205628
-2.18304554623153,-1.72679410050084
-2.186998148949,-1.7684696204546
-2.2166713779262,-1.85756655897727
-2.24360838823955,-1.91297430504271
-2.18390236474568,-1.85520711574139
-2.11866408122295,-1.80308693698137
-2.15803934546018,-1.85069501024625
-2.26598583824337,-1.96614519481173
-2.41417642744825,-2.1249621402046
-2.51183012395686,-2.24050279611598
-2.47378997832659,-2.23946515604211
-2.40361968807247,-2.19759397360761
-2.39090222453696,-2.19897024744206
-2.41537775665362,-2.20880663597021
-2.45256235804462,-2.21387434692772
-2.45000971515816,-2.20422906730212
-2.35295091962782,-2.08522040781412
-2.24448985520045,-1.95978211444229
-2.22955380378005,-1.91364148769489
-2.26374433438067,-1.91758732622597
-2.35928993210878,-1.99660778926522
-2.42423926738186,-2.07221791161981
-2.3915206638648,-2.09521708127593
-2.33050560971463,-2.10039991369491
-2.33420854634452,-2.13493520381253
-2.37587018530656,-2.16176305772285
-2.43681922632228,-2.18443568052295
-2.43347611547419,-2.16025384718931
-2.31365479880354,-2.05501141948917
-2.18985044026872,-1.959174733964
-2.11065569148792,-1.90595878480069
-2.06279633532235,-1.8779416900682
-2.03535292086991,-1.87299153266589
-2.01783545076157,-1.86465469929398
-1.94245108089536,-1.81491015278275
-1.88675064475433,-1.79100140552601
-1.95340510179941,-1.88631869318877
-2.06182990526894,-2.00324607490603
-2.21991535699198,-2.13287484182986
-2.32938501321007,-2.20434448929755
-2.30711228716334,-2.16267934236784
-2.00446113621359,-2.28534143675329
-1.96823004271093,-2.23099088922824
-1.95510568005638,-2.20903882816626
-2.01107238566231,-2.2435776330187
-2.05295169801393,-2.25304402831562
-2.04395656237836,-2.20649440742691
-2.02964081874195,-2.16577835536572
-2.10177728664842,-2.26940309575171
-2.18367430069685,-2.40792399266396
-2.25593773807297,-2.51662996405094
-2.30279430411876,-2.58628263846953
-2.24520117709153,-2.51595075866737
-2.17773245943546,-2.42348839629501
-2.16553290527768,-2.38281183800934
-2.18913711345766,-2.38275693204179
-2.23477947080535,-2.41556973429266
-2.27618331533427,-2.43347485794378
-2.20915845327849,-2.33786914040855
-2.15221782743711,-2.24405764996373
-2.14797384510469,-2.22788782904735
-2.18730505644756,-2.28177342837359
-2.2445517023858,-2.39134072194017
-2.2648593508398,-2.4749613773235
-2.1848719793926,-2.44376343356696
-2.0912438191789,-2.38747009737768
-2.06604854974249,-2.38702487678539
-2.06768291844206,-2.41832542668169
-2.06976775696174,-2.45020931202259
-2.06216799767733,-2.45521053972374
-1.97197212224333,-2.37226342397862
-1.92100524702088,-2.30477384881894
-1.95884459354649,-2.31591452600382
-2.052383034567,-2.36637500012776
-2.1724309879887,-2.43674802751524
-2.25185557018441,-2.44820032831808
-2.2405935757371,-2.39070795059831
-2.18635291522295,-2.32504612750661
-2.17636748675598,-2.35548708567084
-2.17832592742091,-2.4053821491657
-2.20841521070252,-2.48811888844376
-2.21591319336917,-2.52714541367315
-2.13159608368065,-2.4572989337018
-2.06804840973569,-2.38606132650864
-2.08278980160777,-2.34884276966441
-2.11277381030063,-2.33239582123217
-2.13565890641925,-2.33175263719292
-2.12689603951019,-2.31546606178332
-2.03929025922893,-2.2058703420028
-1.96491432078904,-2.12606394797102
-1.94362248570655,-2.12598578033239
-1.95413245800101,-2.20393741763387
-2.00000237575498,-2.31118373249804
-2.06163071115277,-2.39248229389553
-2.04019229048038,-2.33796214140068
-2.00592524446478,-2.26367607552167
-2.05423385199426,-2.27608362736388
-2.1448819559063,-2.35583509723427
-2.27308485456682,-2.49296856609956
-2.34086569882601,-2.58418932200769
-2.29943855452791,-2.55352224310695
-2.22164741813617,-2.47443930188805
-2.22071244335389,-2.46688674925145
-2.23703457639427,-2.4872419912157
-2.2719781316924,-2.53247838645166
-2.25966582904925,-2.53018104170331
-2.13993290646498,-2.42700373799886
-2.01618019020091,-2.29651149388986
-1.97342015918513,-2.26765656628331
-1.9854396750073,-2.30427425639697
-2.05101512175282,-2.41044575150853
-2.08719026134506,-2.48703849428868
-2.01985792752412,-2.44244421281749
-1.94144662593291,-2.35149638695622
-1.94470943726629,-2.31778445922826
-1.99859852835192,-2.32398003061917
-2.08381512819573,-2.3625438727226
-2.12314896397797,-2.38222971105351
-2.06188609893647,-2.31233249375296
-1.97925569518508,-2.22602581178979
-1.93277822295335,-2.18392416865975
-1.90409476087827,-2.16445915126467
-1.88826376651557,-2.14589428513084
-1.87220827465903,-2.13129407125987
-1.81347311323646,-2.05917049046623
-1.77776360787209,-2.01623413521586
-1.84877774775029,-2.09952886907676
-1.94416515113564,-2.21325418689578
-2.08193041348026,-2.36434978917617
-2.17550855638698,-2.46832519928848
-2.16357797148358,-2.4564421309892
-1.97500760218636,-2.06704918954215
-1.92896633143778,-2.03955591074335
-1.8860163685152,-2.03640705525383
-1.90982647569739,-2.08314267304047
-1.94461336251588,-2.12310763717616
-1.94869862712368,-2.12755095546134
-1.95260754685308,-2.10717174265305
-2.06519945221358,-2.18578856136567
-2.18983176923738,-2.27276946306622
-2.2883895542182,-2.34100215656773
-2.35081443293723,-2.38757433825877
-2.28917489601978,-2.310711849961
-2.2138965462482,-2.23129075027037
-2.187106884249,-2.20313534174675
-2.19297899171873,-2.20746161848628
-2.23855899623787,-2.24707360202091
-2.25970344487647,-2.26106214564712
-2.18283953153423,-2.17501645881241
-2.10470485654168,-2.09413859948266
-2.09089456951489,-2.07731303111294
-2.12620634694128,-2.12600577501029
-2.19158457351018,-2.2121440395463
-2.25278788482629,-2.28808679250224
-2.21082382862911,-2.26206781183618
-2.15840665940157,-2.21943404776935
-2.15152887873757,-2.21977363230629
-2.17713533930852,-2.25130783377986
-2.20596147294012,-2.28670697106971
-2.20247120537871,-2.29887807506539
-2.12574931197048,-2.23334423781579
-2.07335767983282,-2.17874458883952
-2.10815563022368,-2.21974783280772
-2.15935894370129,-2.27240622936183
-2.20716572012035,-2.33774336372598
-2.18590431840755,-2.34978769656857
-2.1050684551699,-2.29044833830086
-2.03100550981994,-2.22406863415333
-2.06573447880734,-2.24612833213814
-2.11595960162202,-2.25408203259046
-2.20571292123659,-2.26576802895038
-2.24882007410526,-2.18707933398484
-2.17759399378592,-2.02380999328331
-2.091556979153,-1.89401097997199
-2.04123347798058,-1.8566494034285
-2.01720880221381,-1.85103783161535
-2.02574330852404,-1.88983266481574
-2.03947410273111,-1.90423960219964
-1.99059189584709,-1.86695253838982
-1.9594846694022,-1.82620657021888
-1.98796740292699,-1.84639984613
-2.05543591024114,-1.90358840337733
-2.14487290381697,-1.98320952404355
-2.23148151283859,-2.0306172987736
-2.20773140522879,-1.96269300827643
-2.16748284301396,-1.91467282541612
-2.18969404786909,-1.98143090603474
-2.26066998789813,-2.12650470931329
-2.3563964480873,-2.31384607517948
-2.40333243711487,-2.43891704550594
-2.34391956328802,-2.42450855362565
-2.27492134677754,-2.3712731333326
-2.26375861804916,-2.37485207890656
-2.27240595447471,-2.393796161905
-2.30007024330195,-2.40678081770605
-2.2869777962997,-2.38015516353752
-2.17670793232783,-2.23641541055491
-2.05768467196336,-2.08590944319282
-2.02509352714844,-2.02310738957845
-2.04993345660979,-2.03271391054321
-2.14034573669582,-2.1127920050774
-2.20094028298618,-2.16647422424617
-2.16238218333821,-2.12546693960134
-2.09869054484684,-2.06433450651197
-2.09418320732631,-2.08463027444015
-2.1313798371538,-2.14272141790603
-2.20726827484676,-2.24043395566609
-2.24013315047629,-2.30031540899117
-2.17130751838757,-2.2512666629934
-2.09631595057244,-2.18879665070075
-2.06766386015798,-2.1539223572247
-2.06278408067037,-2.13461893177446
-2.07279190140057,-2.10854761238914
-2.07175897973208,-2.06581698107089
-2.00981547371342,-1.95591726141414
-1.95334583944954,-1.87507362707128
-1.98700834012182,-1.94588238550455
-2.04583274918531,-2.06344135589527
-2.14156272708026,-2.22399553642599
-2.2243580741599,-2.32829852578985
-2.20714082621433,-2.31497818430326
-2.17097422885107,-2.30643980039894
-2.12830397645442,-2.26474791989123
-2.10287867666824,-2.25803383687438
-2.14077926013418,-2.31522023651023
-2.16989564186932,-2.33419657975994
-2.14611144706696,-2.30211274729087
-2.12150363641729,-2.2526019749473
-2.20500239292381,-2.32591756721774
-2.31784092409346,-2.43154967647818
-2.40882582409015,-2.50417157262348
-2.47411894010453,-2.56323562006174
-2.40734795478457,-2.50883886556211
-2.31623722910474,-2.4253910436601
-2.26651675024173,-2.38091646288044
-2.25510932199348,-2.36629897043052
-2.26492512717764,-2.37048705928447
-2.25668636698188,-2.3701269301267
-2.13595589195266,-2.24382654920566
-2.01305134939497,-2.12292722298528
-1.97191996136817,-2.07523195859022
-2.01060620463779,-2.09697728917019
-2.10755169486326,-2.17349386436265
-2.2106830629332,-2.24856409241008
-2.22612841898392,-2.23947620893264
-2.21936561068346,-2.219305362396
-2.25731194525192,-2.24501891342927
-2.29722086807134,-2.26518178712643
-2.32715173683631,-2.26533196891273
-2.31075686821327,-2.23867039072534
-2.22248295143157,-2.12925057063817
-2.14914216231045,-2.06679930890127
-2.1586100916919,-2.09420384027454
-2.19599719740744,-2.18566431766751
-2.26945183865042,-2.32398884098192
-2.28653917853758,-2.40903913455798
-2.23944765249742,-2.40128024187878
-2.18006417756273,-2.36542879678987
-2.20984507915837,-2.39521272503884
-2.24545244846509,-2.4201828158833
-2.31764766298299,-2.45679035115696
-2.33851594805503,-2.44219861665655
-2.25542796118838,-2.33289266650159
-2.17548488219778,-2.23121042456846
-2.13636437392766,-2.17544121638974
-2.12685401192382,-2.15421944187398
-2.15391327218091,-2.19262361938299
-2.17939475598512,-2.22727592854933
-2.13203297566923,-2.17777277508052
-2.08633278522095,-2.11880467087459
-2.09416482628736,-2.11595832402553
-2.12932177971968,-2.14747473682797
-2.19651628264975,-2.22241192440902
-2.22464154716794,-2.29255801332078
-2.13861039775993,-2.244428241705
-2.04405577415359,-2.18995336310941
-2.05636239379569,-2.2212377454669
-2.13978734266478,-2.30669052892188
-2.28382775883805,-2.44731355932931
-2.39009782623354,-2.54091845847365
-2.39088255703613,-2.52221551287063
-2.3501285864711,-2.46520967420681
-2.3527638825919,-2.46847394386641
-2.37120716876592,-2.49175249433477
-2.38676917759336,-2.5239598692591
-2.36866978901532,-2.51905726139492
-2.24418502506612,-2.40869181000983
-2.09792775483441,-2.28149781464755
-2.04079279648005,-2.23914188113787
-2.05191402838164,-2.25195077786916
-2.13685782432438,-2.31555486811234
-2.2407921904768,-2.34933367448985
-2.25284354877734,-2.26933557912365
-2.23818867324666,-2.18258608092188
-2.26197131679135,-2.16463425712104
-2.2860541093005,-2.20456369031175
-2.3211963556332,-2.27696331472549
-2.32137869746161,-2.30464368815732
-2.20897789863895,-2.22469587024695
-2.09917466920231,-2.13394462990009
-2.03938562976572,-2.07461950697582
-2.0030009742065,-2.03708014882077
-1.99837281566966,-2.00116626253661
-1.99565008608479,-1.99100870061924
-1.95859131059126,-1.93034831218628
-1.92194963082801,-1.90743077901648
-1.98486433766777,-2.02028180114118
-2.06997377617379,-2.15366128912035
-2.19978935600907,-2.32192227695093
-2.30646048169794,-2.41641110904713
-2.30254746083457,-2.37911887342594
-1.97117187453568,-2.26655791063842
-1.92470372467432,-2.24015152336448
-1.90874661641899,-2.21909015941775
-1.96146638473209,-2.25281346157659
-2.00200270971893,-2.25117206103755
-1.99402191513994,-2.20026155188553
-1.98728433652051,-2.14713754081976
-2.05499337686513,-2.22119458415256
-2.15541508219986,-2.33119634978745
-2.22786502997412,-2.43303096042794
-2.28426260252967,-2.50418827781159
-2.2301556383405,-2.44801644306029
-2.16021347768124,-2.37713294723738
-2.13646727475643,-2.36054463320021
-2.15203472676594,-2.3918037692268
-2.18580952990604,-2.44278245307715
-2.2075877851479,-2.48187914669647
-2.12548585162529,-2.41893907836455
-2.05799266178207,-2.3585190449591
-2.0404522601561,-2.35736180801871
-2.07664329732013,-2.39763927575132
-2.14244052991558,-2.44919465611706
-2.18707342361492,-2.47995565899334
-2.13807117907254,-2.41866628439417
-2.08869955208831,-2.34311678590145
-2.08302720087602,-2.33621174867735
-2.09308705546158,-2.34756200332674
-2.10079927813383,-2.36832345984016
-2.09264914972667,-2.35009751422927
-1.99009537486496,-2.24474145550729
-1.92588556512153,-2.14720753488809
-1.94729995303624,-2.13988466007389
-2.01354940111205,-2.1751500946625
-2.11437217308772,-2.2543810295733
-2.1653761925712,-2.29084146699735
-2.1275663182772,-2.24515494101777
-2.06386666762932,-2.179690364445
-2.07773359278982,-2.18956257664088
-2.11235283943668,-2.20794347311263
-2.17746387386694,-2.22709916850021
-2.19475353620069,-2.18949928017949
-2.11943531711713,-2.06085105260447
-2.03613170165868,-1.96646140862039
-2.00889140362482,-1.96758233351184
-2.01068986259763,-2.00389868937224
-2.04278521277094,-2.07703509459397
-2.08497370270931,-2.14651015071444
-2.04592217598755,-2.15067014132748
-2.0099887316905,-2.1345057915571
-1.99838618998517,-2.16287420837849
-2.00625587487247,-2.20375177107522
-2.02965647003603,-2.26469937904539
-2.03709991762854,-2.30245031567408
-1.95732891538764,-2.21791479251561
-1.88046579502132,-2.1321657975888
-1.92022962244117,-2.15266191223456
-2.01622331685364,-2.24199363039476
-2.15684629246038,-2.38352181234154
-2.2574930669618,-2.47879276265174
-2.23317164946232,-2.45934704664208
-2.18278395640529,-2.399408305714
-2.19457844494867,-2.40234161565115
-2.22944192071842,-2.42239812569598
-2.27749978089757,-2.45143572091379
-2.28386603426928,-2.44048294111621
-2.20704218376557,-2.3220859938325
-2.1279180824908,-2.18719524874893
-2.12335564329365,-2.13363937576254
-2.16050954893303,-2.15319177843005
-2.23230388849944,-2.23960498979156
-2.27330902792171,-2.32842228229172
-2.21981620688905,-2.31795218013394
-2.14753806428699,-2.28167905928083
-2.13995974711697,-2.29550691240514
-2.15156064660484,-2.3139740543626
-2.17447813653085,-2.35138455078953
-2.15299687148155,-2.34560257306856
-2.03626631345372,-2.23207529009733
-1.91267401256811,-2.1189435464963
-1.84078299548477,-2.04390846864895
-1.80275365931465,-2.00003194754752
-1.79722009220579,-1.98487593187034
-1.82771458961346,-1.99226855819961
-1.81459294839069,-1.95687267852577
-1.8308373562866,-1.9456837244419
-1.95014842275889,-2.04354793160893
-2.06258977867114,-2.16102561063287
-2.18099326326953,-2.31284989631457
-2.21592624094273,-2.41039808898446
-2.13032125021864,-2.38610491147782
-2.15923119037659,-2.31760905668636
-2.11992635405193,-2.25706525282708
-2.09215541309436,-2.22701270900434
-2.13611077087214,-2.26125479162973
-2.15390635794394,-2.28229441445138
-2.12606044224274,-2.25479447336759
-2.10219170247464,-2.23377748577522
-2.19849099304138,-2.33103795719149
-2.32689034999893,-2.45210069763142
-2.4265467036791,-2.56221738698701
-2.49923110391254,-2.63460742712659
-2.45495993499396,-2.58080497487576
-2.38043390457019,-2.50314769198431
-2.35171851179219,-2.47799634717309
-2.36693924502913,-2.48598568838472
-2.40229654178482,-2.53074948512648
-2.41712538805605,-2.55338681786328
-2.31353013756334,-2.46050755616014
-2.20521357550489,-2.37839051025195
-2.15886879643589,-2.34568286058436
-2.16506133944683,-2.37918686710231
-2.20849692179697,-2.44650707183922
-2.25697175058672,-2.50516654807297
-2.23947461352668,-2.47465942354042
-2.22378272999842,-2.44228668999161
-2.25992341996781,-2.46466324366273
-2.30785866298792,-2.5004482052807
-2.33627362181068,-2.53396740251368
-2.33684353245948,-2.54306040981387
-2.25095734409926,-2.45709268946913
-2.19581638501227,-2.3795599124094
-2.23973322838783,-2.37065923606482
-2.29940211165441,-2.40014034343465
-2.38043296322834,-2.46771242378427
-2.40275514313994,-2.49178749108501
-2.34257763764626,-2.44268592936061
-2.27116308790983,-2.37380751727619
-2.29725814741151,-2.39550956031138
-2.31703933345986,-2.40173492345664
-2.36244943301306,-2.41055385504457
-2.33693950834449,-2.3601496212015
-2.21721733027444,-2.21610798543228
-2.11790053771522,-2.12142341938602
-2.1098257435316,-2.11113493615076
-2.13470675374741,-2.15849559721577
-2.19160866963131,-2.22727867689059
-2.22046402334527,-2.26724059340407
-2.14917013388031,-2.21651830756554
-2.07667267829497,-2.1642224521207
-2.05913449315107,-2.1630703091541
-2.07226107342324,-2.21163182505823
-2.10231488461717,-2.29540258218194
-2.13248609077632,-2.36183262587857
-2.04513968698188,-2.29859083254527
-1.95864703320771,-2.22752756139677
-1.99055283528786,-2.2519110823532
-2.09156632510134,-2.34576564473064
-2.24494393510489,-2.48999785625811
-2.37655574762492,-2.5810798147181
-2.4045224190382,-2.54731999665805
-2.39467863969444,-2.48864667822388
-2.43456610194183,-2.49866563689721
-2.47380572336338,-2.54163181020867
-2.50911815251659,-2.5842355769394
-2.49740472865674,-2.59429018377397
-2.37802865845117,-2.49667803558119
-2.23665663781613,-2.38118757102118
-2.17555317181534,-2.34373187383381
-2.16326258946758,-2.36119594891389
-2.21044691198454,-2.41341046797532
-2.26302011234288,-2.43081206857582
-2.23461311451881,-2.33680123550082
-2.2035658513298,-2.23503278360695
-2.21294554006715,-2.21878957116494
-2.23945997232549,-2.26965401115784
-2.28302206813932,-2.36011987788415
-2.31593936253885,-2.41238910335735
-2.24864358602642,-2.36354362721408
-2.19290435015095,-2.288805773142
-2.17648523290612,-2.25552110667037
-2.19198652430521,-2.24344163367404
-2.22866234933922,-2.25197257197906
-2.26849152383325,-2.25896022623114
-2.24354978486296,-2.19631602568316
-2.21903475267907,-2.14427143553755
-2.27842585821399,-2.17461275746003
-2.3293673758864,-2.22746204406757
-2.4040884165324,-2.32971670246764
-2.41737490957993,-2.40228213046992
-2.33222762812351,-2.37212448902192
-2.20431397628561,-2.25386986446734
-2.16981884681387,-2.21143412363041
-2.15793109312954,-2.20506477191552
-2.19898224020557,-2.26893279426819
-2.21508982053627,-2.31087453188741
-2.18653518158668,-2.30309235825396
-2.16070020320978,-2.27109961937593
-2.25220634463346,-2.35887736626541
-2.37248513296943,-2.45588836506092
-2.45667674910942,-2.53468683380615
-2.51049609032066,-2.57970847793496
-2.45192094255118,-2.51196640391789
-2.36629824842052,-2.40911084221664
-2.33448418426456,-2.36847150225379
-2.3355957025821,-2.36645814823673
-2.36890377283616,-2.3834215390533
-2.36716893756601,-2.37552661497061
-2.25056900361866,-2.25973166074162
-2.14742307387468,-2.15436060554516
-2.11703888698764,-2.12877732041701
-2.1636952925301,-2.16683217138243
-2.24055310774426,-2.26732079781012
-2.32274057671774,-2.35740672921839
-2.30992220284685,-2.34871235169731
-2.28778778272845,-2.31958380651107
-2.31909731620275,-2.35261166936208
-2.34820378298852,-2.39696241191393
-2.34876807186078,-2.43357598574969
-2.3065138543864,-2.43714593908004
-2.17629892395954,-2.34822595322545
-2.08022087165532,-2.28425123920084
-2.08705402551669,-2.30284226162741
-2.13917886899673,-2.3664695699576
-2.23481163015407,-2.47060820189657
-2.28528501869395,-2.5075668673415
-2.2577297908506,-2.46887669148373
-2.2253346314861,-2.40573493910297
-2.29499821249336,-2.44837949340562
-2.35880925732375,-2.48833381142237
-2.42493649240113,-2.53786644232484
-2.42517478447399,-2.51780288876848
-2.33073363639633,-2.3886189972987
-2.22906171716336,-2.25901412935776
-2.19490965451002,-2.18271265081144
-2.17538540931382,-2.13915402226188
-2.18612264632135,-2.1350164500435
-2.17325025117352,-2.10616228937117
-2.10561218402655,-1.98399669280359
-2.06047988938961,-1.8734437272644
-2.08946332135549,-1.87053636015781
-2.17011603253317,-1.94450362907292
-2.25874119964218,-2.08100319904446
-2.31219281987158,-2.20568647748527
-2.24353698178103,-2.20226882715968
-2.15379336820038,-2.19280981026921
-2.17825155892868,-2.28394075664216
-2.25836079247021,-2.40589640079621
-2.39762123611828,-2.55808149645158
-2.49127243253803,-2.63056114718176
-2.4760225345239,-2.5745337984864
-2.43233754790909,-2.49629458477661
-2.44700116918708,-2.48601978624267
-2.47535863211956,-2.49462797881254
-2.50231139595431,-2.50287295151842
-2.4769543216466,-2.46731282831563
-2.35283674419958,-2.32740030806752
-2.21077445126893,-2.17394979691348
-2.1752198198341,-2.13201713525375
-2.18467377051106,-2.16355188907993
-2.23628478114768,-2.27817523001519
-2.28158678772175,-2.38349197366848
-2.24173883855405,-2.37069799148545
-2.2011965229777,-2.32909963168468
-2.23579653514678,-2.3386944130368
-2.2968975188277,-2.37303516371717
-2.37474734712535,-2.42085774376843
-2.39090131220532,-2.41618155535126
-2.28063295417249,-2.31017724740294
-2.1777872283921,-2.21883751125842
-2.13419656601423,-2.1817618097417
-2.11529921927837,-2.17941325677418
-2.13566849211792,-2.20363346488808
-2.15333697578353,-2.24131650506447
-2.12369330878133,-2.22126841320835
-2.11021971488467,-2.20279903574908
-2.19756307192712,-2.27351912166815
-2.29506848657543,-2.3437570694178
-2.41035007061722,-2.44600083589472
-2.46950955277318,-2.49001947649152
-2.42475615588287,-2.44182720538445
-2.15085711337899,-2.31198503343185
-2.13176441827244,-2.29423842910747
-2.14472920153833,-2.29875116605818
-2.21123782842417,-2.36508177145618
-2.26034363622628,-2.40638209653224
-2.25834371507334,-2.39916790535201
-2.22839412680316,-2.36912236169946
-2.27087524106135,-2.43893787784723
-2.32248871171573,-2.50760035187833
-2.37674883808541,-2.56566909107283
-2.40868822948067,-2.61212549157495
-2.33117965110379,-2.54258380061888
-2.2493148667138,-2.46186926598488
-2.21862794754427,-2.43790916248337
-2.23066327112546,-2.45604008025764
-2.27215166651185,-2.49398885724085
-2.29228205353656,-2.5110630737395
-2.21755275057336,-2.41408730669199
-2.14255350650966,-2.33511821844253
-2.1307665831569,-2.32169984206247
-2.193577922668,-2.36801276432469
-2.29176416841787,-2.45020356191094
-2.36567803141708,-2.51114655111928
-2.32253813194981,-2.47584887664021
