0,0.00277777777777778,0.00555555555555556,0.00833333333333333,0.0111111111111111,0.0138888888888889,0.0166666666666667,0.0194444444444444,0.0222222222222222,0.025,0.0277777777777778,0.0305555555555556,0.0333333333333333,0.0361111111111111,0.0388888888888889,0.0416666666666667,0.0444444444444444,0.0472222222222222,0.05,0.0527777777777778,0.0555555555555556,0.0583333333333333,0.0611111111111111,0.0638888888888889,0.0666666666666667,0.0694444444444444,0.0722222222222222,0.075,0.0777777777777778,0.0805555555555556,0.0833333333333333,0.0861111111111111,0.0888888888888889,0.0916666666666667,0.0944444444444444,0.0972222222222222,0.1,0.102777777777778,0.105555555555556,0.108333333333333,0.111111111111111,0.113888888888889,0.116666666666667,0.119444444444444,0.122222222222222,0.125,0.127777777777778,0.130555555555556,0.133333333333333,0.136111111111111,0.138888888888889,0.141666666666667,0.144444444444444,0.147222222222222,0.15,0.152777777777778,0.155555555555556,0.158333333333333,0.161111111111111,0.163888888888889,0.166666666666667,0.169444444444444,0.172222222222222,0.175,0.177777777777778,0.180555555555556,0.183333333333333,0.186111111111111,0.188888888888889,0.191666666666667,0.194444444444444,0.197222222222222,0.2,0.202777777777778,0.205555555555556,0.208333333333333,0.211111111111111,0.213888888888889,0.216666666666667,0.219444444444444,0.222222222222222,0.225,0.227777777777778,0.230555555555556,0.233333333333333,0.236111111111111,0.238888888888889,0.241666666666667,0.244444444444444,0.247222222222222,0.25,0.252777777777778,0.255555555555556,0.258333333333333,0.261111111111111,0.263888888888889,0.266666666666667,0.269444444444444,0.272222222222222,0.275,0.277777777777778,0.280555555555556,0.283333333333333,0.286111111111111,0.288888888888889,0.291666666666667,0.294444444444444,0.297222222222222,0.3,0.302777777777778,0.305555555555556,0.308333333333333,0.311111111111111,0.313888888888889,0.316666666666667,0.319444444444444,0.322222222222222,0.325,0.327777777777778,0.330555555555556,0.333333333333333,0.336111111111111,0.338888888888889,0.341666666666667,0.344444444444444,0.347222222222222,0.35,0.352777777777778,0.355555555555556,0.358333333333333,0.361111111111111,0.363888888888889,0.366666666666667,0.369444444444444,0.372222222222222,0.375,0.377777777777778,0.380555555555556,0.383333333333333,0.386111111111111,0.388888888888889,0.391666666666667,0.394444444444444,0.397222222222222,0.4,0.402777777777778,0.405555555555556,0.408333333333333,0.411111111111111,0.413888888888889,0.416666666666667,0.419444444444444,0.422222222222222,0.425,0.427777777777778,0.430555555555556,0.433333333333333,0.436111111111111,0.438888888888889,0.441666666666667,0.444444444444444,0.447222222222222,0.45,0.452777777777778,0.455555555555556,0.458333333333333,0.461111111111111,0.463888888888889,0.466666666666667,0.469444444444444,0.472222222222222,0.475,0.477777777777778,0.480555555555556,0.483333333333333,0.486111111111111,0.488888888888889,0.491666666666667,0.494444444444444,0.497222222222222,0.5,0.502777777777778,0.505555555555556,0.508333333333333,0.511111111111111,0.513888888888889,0.516666666666667,0.519444444444444,0.522222222222222,0.525,0.527777777777778,0.530555555555556,0.533333333333333,0.536111111111111,0.538888888888889,0.541666666666667,0.544444444444444,0.547222222222222,0.55,0.552777777777778,0.555555555555556,0.558333333333333,0.561111111111111,0.563888888888889,0.566666666666667,0.569444444444444,0.572222222222222,0.575,0.577777777777778,0.580555555555556,0.583333333333333,0.586111111111111,0.588888888888889,0.591666666666667,0.594444444444444,0.597222222222222,0.6,0.602777777777778,0.605555555555556,0.608333333333333,0.611111111111111,0.613888888888889,0.616666666666667,0.619444444444444,0.622222222222222,0.625,0.627777777777778,0.630555555555556,0.633333333333333,0.636111111111111,0.638888888888889,0.641666666666667,0.644444444444444,0.647222222222222,0.65,0.652777777777778,0.655555555555556,0.658333333333333,0.661111111111111,0.663888888888889,0.666666666666667,0.669444444444444,0.672222222222222,0.675,0.677777777777778,0.680555555555556,0.683333333333333,0.686111111111111,0.688888888888889,0.691666666666667,0.694444444444444,0.697222222222222,0.7,0.702777777777778,0.705555555555556,0.708333333333333,0.711111111111111,0.713888888888889,0.716666666666667,0.719444444444444,0.722222222222222,0.725,0.727777777777778,0.730555555555556,0.733333333333333,0.736111111111111,0.738888888888889,0.741666666666667,0.744444444444444,0.747222222222222,0.75,0.752777777777778,0.755555555555556,0.758333333333333,0.761111111111111,0.763888888888889,0.766666666666667,0.769444444444444,0.772222222222222,0.775,0.777777777777778,0.780555555555556,0.783333333333333,0.786111111111111,0.788888888888889,0.791666666666667,0.794444444444444,0.797222222222222,0.8,0.802777777777778,0.805555555555556,0.808333333333333,0.811111111111111,0.813888888888889,0.816666666666667,0.819444444444444,0.822222222222222,0.825,0.827777777777778,0.830555555555556,0.833333333333333,0.836111111111111,0.838888888888889,0.841666666666667,0.844444444444444,0.847222222222222,0.85,0.852777777777778,0.855555555555556,0.858333333333333,0.861111111111111,0.863888888888889,0.866666666666667,0.869444444444444,0.872222222222222,0.875,0.877777777777778,0.880555555555556,0.883333333333333,0.886111111111111,0.888888888888889,0.891666666666667,0.894444444444444,0.897222222222222,0.9,0.902777777777778,0.905555555555556,0.908333333333333,0.911111111111111,0.913888888888889,0.916666666666667,0.919444444444444,0.922222222222222,0.925,0.927777777777778,0.930555555555556,0.933333333333333,0.936111111111111,0.938888888888889,0.941666666666667,0.944444444444444,0.947222222222222,0.95,0.952777777777778,0.955555555555556,0.958333333333333,0.961111111111111,0.963888888888889,0.966666666666667,0.969444444444444,0.972222222222222,0.975,0.977777777777778,0.980555555555556,0.983333333333333,0.986111111111111,0.988888888888889,0.991666666666667,0.994444444444444,0.997222222222222,1,1.00277777777778,1.00555555555556,1.00833333333333,1.01111111111111,1.01388888888889,1.01666666666667,1.01944444444444,1.02222222222222,1.025,1.02777777777778,1.03055555555556,1.03333333333333,1.03611111111111,1.03888888888889,1.04166666666667,1.04444444444444,1.04722222222222,1.05,1.05277777777778,1.05555555555556,1.05833333333333,1.06111111111111,1.06388888888889,1.06666666666667,1.06944444444444,1.07222222222222,1.075,1.07777777777778,1.08055555555556,1.08333333333333,1.08611111111111,1.08888888888889,1.09166666666667,1.09444444444444,1.09722222222222,1.1,1.10277777777778,1.10555555555556,1.10833333333333,1.11111111111111,1.11388888888889,1.11666666666667,1.11944444444444,1.12222222222222,1.125,1.12777777777778,1.13055555555556,1.13333333333333,1.13611111111111,1.13888888888889,1.14166666666667,1.14444444444444,1.14722222222222,1.15,1.15277777777778,1.15555555555556,1.15833333333333,1.16111111111111,1.16388888888889,1.16666666666667,1.16944444444444,1.17222222222222,1.175,1.17777777777778,1.18055555555556,1.18333333333333,1.18611111111111,1.18888888888889,1.19166666666667,1.19444444444444,1.19722222222222,1.2,1.20277777777778,1.20555555555556,1.20833333333333,1.21111111111111,1.21388888888889,1.21666666666667,1.21944444444444,1.22222222222222,1.225,1.22777777777778,1.23055555555556,1.23333333333333,1.23611111111111,1.23888888888889,1.24166666666667,1.24444444444444,1.24722222222222,1.25,1.25277777777778,1.25555555555556,1.25833333333333,1.26111111111111,1.26388888888889,1.26666666666667,1.26944444444444,1.27222222222222,1.275,1.27777777777778,1.28055555555556,1.28333333333333,1.28611111111111,1.28888888888889,1.29166666666667,1.29444444444444,1.29722222222222,1.3,1.30277777777778,1.30555555555556,1.30833333333333,1.31111111111111,1.31388888888889,1.31666666666667,1.31944444444444,1.32222222222222,1.325,1.32777777777778,1.33055555555556,1.33333333333333,1.33611111111111,1.33888888888889,1.34166666666667,1.34444444444444,1.34722222222222,1.35,1.35277777777778,1.35555555555556,1.35833333333333,1.36111111111111,1.36388888888889,1.36666666666667,1.36944444444444,1.37222222222222,1.375,1.37777777777778,1.38055555555556,1.38333333333333,1.38611111111111,1.38888888888889,1.39166666666667,1.39444444444444,1.39722222222222,1.4,1.40277777777778,1.40555555555556,1.40833333333333,1.41111111111111,1.41388888888889,1.41666666666667,1.41944444444444,1.42222222222222,1.425,1.42777777777778,1.43055555555556,1.43333333333333,1.43611111111111,1.43888888888889,1.44166666666667,1.44444444444444,1.44722222222222,1.45,1.45277777777778,1.45555555555556,1.45833333333333,1.46111111111111,1.46388888888889,1.46666666666667,1.46944444444444,1.47222222222222,1.475,1.47777777777778,1.48055555555556,1.48333333333333,1.48611111111111,1.48888888888889,1.49166666666667,1.49444444444444,1.49722222222222,1.5,1.50277777777778,1.50555555555556,1.50833333333333,1.51111111111111,1.51388888888889,1.51666666666667,1.51944444444444,1.52222222222222,1.525,1.52777777777778,1.53055555555556,1.53333333333333,1.53611111111111,1.53888888888889,1.54166666666667,1.54444444444444,1.54722222222222,1.55,1.55277777777778,1.55555555555556,1.55833333333333,1.56111111111111,1.56388888888889,1.56666666666667,1.56944444444444,1.57222222222222,1.575,1.57777777777778,1.58055555555556,1.58333333333333,1.58611111111111,1.58888888888889,1.59166666666667,1.59444444444444,1.59722222222222,1.6,1.60277777777778,1.60555555555556,1.60833333333333,1.61111111111111,1.61388888888889,1.61666666666667,1.61944444444444,1.62222222222222,1.625,1.62777777777778,1.63055555555556,1.63333333333333,1.63611111111111,1.63888888888889,1.64166666666667,1.64444444444444,1.64722222222222,1.65,1.65277777777778,1.65555555555556,1.65833333333333,1.66111111111111,1.66388888888889,1.66666666666667,1.66944444444444,1.67222222222222,1.675,1.67777777777778,1.68055555555556,1.68333333333333,1.68611111111111,1.68888888888889,1.69166666666667,1.69444444444444,1.69722222222222,1.7,1.70277777777778,1.70555555555556,1.70833333333333,1.71111111111111,1.71388888888889,1.71666666666667,1.71944444444444,1.72222222222222,1.725,1.72777777777778,1.73055555555556,1.73333333333333,1.73611111111111,1.73888888888889,1.74166666666667,1.74444444444444,1.74722222222222,1.75,1.75277777777778,1.75555555555556,1.75833333333333,1.76111111111111,1.76388888888889,1.76666666666667,1.76944444444444,1.77222222222222,1.775,1.77777777777778,1.78055555555556,1.78333333333333,1.78611111111111,1.78888888888889,1.79166666666667,1.79444444444444,1.79722222222222,1.8,1.80277777777778,1.80555555555556,1.80833333333333,1.81111111111111,1.81388888888889,1.81666666666667,1.81944444444444,1.82222222222222,1.825,1.82777777777778,1.83055555555556,1.83333333333333,1.83611111111111,1.83888888888889,1.84166666666667,1.84444444444444,1.84722222222222,1.85,1.85277777777778,1.85555555555556,1.85833333333333,1.86111111111111,1.86388888888889,1.86666666666667,1.86944444444444,1.87222222222222,1.875,1.87777777777778,1.88055555555556,1.88333333333333,1.88611111111111,1.88888888888889,1.89166666666667,1.89444444444444,1.89722222222222,1.9,1.90277777777778,1.90555555555556,1.90833333333333,1.91111111111111,1.91388888888889,1.91666666666667,1.91944444444444,1.92222222222222,1.925,1.92777777777778,1.93055555555556,1.93333333333333,1.93611111111111,1.93888888888889,1.94166666666667,1.94444444444444,1.94722222222222,1.95,1.95277777777778,1.95555555555556,1.95833333333333,1.96111111111111,1.96388888888889,1.96666666666667,1.96944444444444,1.97222222222222,1.975,1.97777777777778,1.98055555555556,1.98333333333333,1.98611111111111,1.98888888888889,1.99166666666667,1.99444444444444,1.99722222222222,2,2.00277777777778,2.00555555555556,2.00833333333333,2.01111111111111,2.01388888888889,2.01666666666667,2.01944444444444,2.02222222222222,2.025,2.02777777777778,2.03055555555556,2.03333333333333,2.03611111111111,2.03888888888889,2.04166666666667,2.04444444444444,2.04722222222222,2.05,2.05277777777778,2.05555555555556,2.05833333333333,2.06111111111111,2.06388888888889,2.06666666666667,2.06944444444444,2.07222222222222,2.075,2.07777777777778,2.08055555555556,2.08333333333333,2.08611111111111,2.08888888888889,2.09166666666667,2.09444444444444,2.09722222222222,2.1,2.10277777777778,2.10555555555556,2.10833333333333,2.11111111111111,2.11388888888889,2.11666666666667,2.11944444444444,2.12222222222222,2.125,2.12777777777778,2.13055555555556,2.13333333333333,2.13611111111111,2.13888888888889,2.14166666666667,2.14444444444444,2.14722222222222,2.15,2.15277777777778,2.15555555555556,2.15833333333333,2.16111111111111,2.16388888888889,2.16666666666667,2.16944444444444,2.17222222222222,2.175,2.17777777777778,2.18055555555556,2.18333333333333,2.18611111111111,2.18888888888889,2.19166666666667,2.19444444444444,2.19722222222222,2.2,2.20277777777778,2.20555555555556,2.20833333333333,2.21111111111111,2.21388888888889,2.21666666666667,2.21944444444444,2.22222222222222,2.225,2.22777777777778,2.23055555555556,2.23333333333333,2.23611111111111,2.23888888888889,2.24166666666667,2.24444444444444,2.24722222222222,2.25,2.25277777777778,2.25555555555556,2.25833333333333,2.26111111111111,2.26388888888889,2.26666666666667,2.26944444444444,2.27222222222222,2.275,2.27777777777778,2.28055555555556,2.28333333333333,2.28611111111111,2.28888888888889,2.29166666666667,2.29444444444444,2.29722222222222,2.3,2.30277777777778,2.30555555555556,2.30833333333333,2.31111111111111,2.31388888888889,2.31666666666667,2.31944444444444,2.32222222222222,2.325,2.32777777777778,2.33055555555556,2.33333333333333,2.33611111111111,2.33888888888889,2.34166666666667,2.34444444444444,2.34722222222222,2.35,2.35277777777778,2.35555555555556,2.35833333333333,2.36111111111111,2.36388888888889,2.36666666666667,2.36944444444444,2.37222222222222,2.375,2.37777777777778,2.38055555555556,2.38333333333333,2.38611111111111,2.38888888888889,2.39166666666667,2.39444444444444,2.39722222222222,2.4,2.40277777777778,2.40555555555556,2.40833333333333,2.41111111111111,2.41388888888889,2.41666666666667,2.41944444444444,2.42222222222222,2.425,2.42777777777778,2.43055555555556,2.43333333333333,2.43611111111111,2.43888888888889,2.44166666666667,2.44444444444444,2.44722222222222,2.45,2.45277777777778,2.45555555555556,2.45833333333333,2.46111111111111,2.46388888888889,2.46666666666667,2.46944444444444,2.47222222222222,2.475,2.47777777777778,2.48055555555556,2.48333333333333,2.48611111111111,2.48888888888889,2.49166666666667,2.49444444444444,2.49722222222222,2.5,2.50277777777778,2.50555555555556,2.50833333333333,2.51111111111111,2.51388888888889,2.51666666666667,2.51944444444444,2.52222222222222,2.525,2.52777777777778,2.53055555555556,2.53333333333333,2.53611111111111,2.53888888888889,2.54166666666667,2.54444444444444,2.54722222222222,2.55,2.55277777777778,2.55555555555556,2.55833333333333,2.56111111111111,2.56388888888889,2.56666666666667,2.56944444444444,2.57222222222222,2.575,2.57777777777778,2.58055555555556,2.58333333333333,2.58611111111111,2.58888888888889,2.59166666666667,2.59444444444444,2.59722222222222,2.6,2.60277777777778,2.60555555555556,2.60833333333333,2.61111111111111,2.61388888888889,2.61666666666667,2.61944444444444,2.62222222222222,2.625,2.62777777777778,2.63055555555556,2.63333333333333,2.63611111111111,2.63888888888889,2.64166666666667,2.64444444444444,2.64722222222222,2.65,2.65277777777778,2.65555555555556,2.65833333333333,2.66111111111111,2.66388888888889,2.66666666666667,2.66944444444444,2.67222222222222,2.675,2.67777777777778,2.68055555555556,2.68333333333333,2.68611111111111,2.68888888888889,2.69166666666667,2.69444444444444,2.69722222222222,2.7,2.70277777777778,2.70555555555556,2.70833333333333,2.71111111111111,2.71388888888889,2.71666666666667,2.71944444444444,2.72222222222222,2.725,2.72777777777778,2.73055555555556,2.73333333333333,2.73611111111111,2.73888888888889,2.74166666666667,2.74444444444444,2.74722222222222,2.75,2.75277777777778,2.75555555555556,2.75833333333333,2.76111111111111,2.76388888888889,2.76666666666667,2.76944444444444,2.77222222222222,2.775,2.77777777777778,2.78055555555556,2.78333333333333,2.78611111111111,2.78888888888889,2.79166666666667,2.79444444444444,2.79722222222222,2.8,2.80277777777778,2.80555555555556,2.80833333333333,2.81111111111111,2.81388888888889,2.81666666666667,2.81944444444444,2.82222222222222,2.825,2.82777777777778,2.83055555555556,2.83333333333333,2.83611111111111,2.83888888888889,2.84166666666667,2.84444444444444,2.84722222222222,2.85,2.85277777777778,2.85555555555556,2.85833333333333,2.86111111111111,2.86388888888889,2.86666666666667,2.86944444444444,2.87222222222222,2.875,2.87777777777778,2.88055555555556,2.88333333333333,2.88611111111111,2.88888888888889,2.89166666666667,2.89444444444444,2.89722222222222,2.9,2.90277777777778,2.90555555555556,2.90833333333333,2.91111111111111,2.91388888888889,2.91666666666667,2.91944444444444,2.92222222222222,2.925,2.92777777777778,2.93055555555556,2.93333333333333,2.93611111111111,2.93888888888889,2.94166666666667,2.94444444444444,2.94722222222222,2.95,2.95277777777778,2.95555555555556,2.95833333333333,2.96111111111111,2.96388888888889,2.96666666666667,2.96944444444444,2.97222222222222,2.975,2.97777777777778,2.98055555555556,2.98333333333333,2.98611111111111,2.98888888888889,2.99166666666667,2.99444444444444,2.99722222222222,3,3.00277777777778,3.00555555555556,3.00833333333333,3.01111111111111,3.01388888888889,3.01666666666667,3.01944444444444,3.02222222222222,3.025,3.02777777777778,3.03055555555556,3.03333333333333,3.03611111111111,3.03888888888889,3.04166666666667,3.04444444444444,3.04722222222222,3.05,3.05277777777778,3.05555555555556,3.05833333333333,3.06111111111111,3.06388888888889,3.06666666666667,3.06944444444444,3.07222222222222,3.075,3.07777777777778,3.08055555555556,3.08333333333333,3.08611111111111,3.08888888888889,3.09166666666667,3.09444444444444,3.09722222222222,3.1,3.10277777777778,3.10555555555556,3.10833333333333,3.11111111111111,3.11388888888889,3.11666666666667,3.11944444444444,3.12222222222222,3.125,3.12777777777778,3.13055555555556,3.13333333333333,3.13611111111111,3.13888888888889,3.14166666666667,3.14444444444444,3.14722222222222,3.15,3.15277777777778,3.15555555555556,3.15833333333333,3.16111111111111,3.16388888888889,3.16666666666667,3.16944444444444,3.17222222222222,3.175,3.17777777777778,3.18055555555556,3.18333333333333,3.18611111111111,3.18888888888889,3.19166666666667,3.19444444444444,3.19722222222222,3.2,3.20277777777778,3.20555555555556,3.20833333333333,3.21111111111111,3.21388888888889,3.21666666666667,3.21944444444444,3.22222222222222,3.225,3.22777777777778,3.23055555555556,3.23333333333333,3.23611111111111,3.23888888888889,3.24166666666667,3.24444444444444,3.24722222222222,3.25,3.25277777777778,3.25555555555556,3.25833333333333,3.26111111111111,3.26388888888889,3.26666666666667,3.26944444444444,3.27222222222222,3.275,3.27777777777778,3.28055555555556,3.28333333333333,3.28611111111111,3.28888888888889,3.29166666666667,3.29444444444444,3.29722222222222,3.3,3.30277777777778,3.30555555555556,3.30833333333333,3.31111111111111,3.31388888888889,3.31666666666667,3.31944444444444,3.32222222222222,3.325,3.32777777777778,3.33055555555556,3.33333333333333,3.33611111111111,3.33888888888889,3.34166666666667,3.34444444444444,3.34722222222222,3.35,3.35277777777778,3.35555555555556,3.35833333333333,3.36111111111111,3.36388888888889,3.36666666666667,3.36944444444444,3.37222222222222,3.375,3.37777777777778,3.38055555555556,3.38333333333333,3.38611111111111,3.38888888888889,3.39166666666667,3.39444444444444,3.39722222222222,3.4,3.40277777777778,3.40555555555556,3.40833333333333,3.41111111111111,3.41388888888889,3.41666666666667,3.41944444444444,3.42222222222222,3.425,3.42777777777778,3.43055555555556,3.43333333333333,3.43611111111111,3.43888888888889,3.44166666666667,3.44444444444444,3.44722222222222,3.45,3.45277777777778,3.45555555555556,3.45833333333333,3.46111111111111,3.46388888888889,3.46666666666667,3.46944444444444,3.47222222222222,3.475,3.47777777777778,3.48055555555556,3.48333333333333,3.48611111111111,3.48888888888889,3.49166666666667,3.49444444444444,3.49722222222222,3.5,3.50277777777778,3.50555555555556,3.50833333333333,3.51111111111111,3.51388888888889,3.51666666666667,3.51944444444444,3.52222222222222,3.525,3.52777777777778,3.53055555555556,3.53333333333333,3.53611111111111,3.53888888888889,3.54166666666667,3.54444444444444,3.54722222222222,3.55,3.55277777777778,3.55555555555556,3.55833333333333,3.56111111111111,3.56388888888889,3.56666666666667,3.56944444444444,3.57222222222222,3.575,3.57777777777778,3.58055555555556,3.58333333333333,3.58611111111111,3.58888888888889,3.59166666666667,3.59444444444444,3.59722222222222,3.6,3.60277777777778,3.60555555555556,3.60833333333333,3.61111111111111,3.61388888888889,3.61666666666667,3.61944444444444,3.62222222222222,3.625,3.62777777777778,3.63055555555556,3.63333333333333,3.63611111111111,3.63888888888889,3.64166666666667,3.64444444444444,3.64722222222222,3.65,3.65277777777778,3.65555555555556,3.65833333333333,3.66111111111111,3.66388888888889,3.66666666666667,3.66944444444444,3.67222222222222,3.675,3.67777777777778,3.68055555555556,3.68333333333333,3.68611111111111,3.68888888888889,3.69166666666667,3.69444444444444,3.69722222222222,3.7,3.70277777777778,3.70555555555556,3.70833333333333,3.71111111111111,3.71388888888889,3.71666666666667,3.71944444444444,3.72222222222222,3.725,3.72777777777778,3.73055555555556,3.73333333333333,3.73611111111111,3.73888888888889,3.74166666666667,3.74444444444444,3.74722222222222,3.75,3.75277777777778,3.75555555555556,3.75833333333333,3.76111111111111,3.76388888888889,3.76666666666667,3.76944444444444,3.77222222222222,3.775,3.77777777777778,3.78055555555556,3.78333333333333,3.78611111111111,3.78888888888889,3.79166666666667,3.79444444444444,3.79722222222222,3.8,3.80277777777778,3.80555555555556,3.80833333333333,3.81111111111111,3.81388888888889,3.81666666666667,3.81944444444444,3.82222222222222,3.825,3.82777777777778,3.83055555555556,3.83333333333333,3.83611111111111,3.83888888888889,3.84166666666667,3.84444444444444,3.84722222222222,3.85,3.85277777777778,3.85555555555556,3.85833333333333,3.86111111111111,3.86388888888889,3.86666666666667,3.86944444444444,3.87222222222222,3.875,3.87777777777778,3.88055555555556,3.88333333333333,3.88611111111111,3.88888888888889,3.89166666666667,3.89444444444444,3.89722222222222,3.9,3.90277777777778,3.90555555555556,3.90833333333333,3.91111111111111,3.91388888888889,3.91666666666667,3.91944444444444,3.92222222222222,3.925,3.92777777777778,3.93055555555556,3.93333333333333,3.93611111111111,3.93888888888889,3.94166666666667,3.94444444444444,3.94722222222222,3.95,3.95277777777778,3.95555555555556,3.95833333333333,3.96111111111111,3.96388888888889,3.96666666666667,3.96944444444444,3.97222222222222,3.975,3.97777777777778,3.98055555555556,3.98333333333333,3.98611111111111,3.98888888888889,3.99166666666667,3.99444444444444,3.99722222222222,4,4.00277777777778,4.00555555555556,4.00833333333333,4.01111111111111,4.01388888888889,4.01666666666667,4.01944444444444,4.02222222222222,4.025,4.02777777777778,4.03055555555556,4.03333333333333,4.03611111111111,4.03888888888889,4.04166666666667,4.04444444444444,4.04722222222222,4.05,4.05277777777778,4.05555555555556,4.05833333333333,4.06111111111111,4.06388888888889,4.06666666666667,4.06944444444444,4.07222222222222,4.075,4.07777777777778,4.08055555555556,4.08333333333333,4.08611111111111,4.08888888888889,4.09166666666667,4.09444444444444,4.09722222222222,4.1,4.10277777777778,4.10555555555556,4.10833333333333,4.11111111111111,4.11388888888889,4.11666666666667,4.11944444444444,4.12222222222222,4.125,4.12777777777778,4.13055555555556,4.13333333333333,4.13611111111111,4.13888888888889,4.14166666666667,4.14444444444444,4.14722222222222,4.15,4.15277777777778,4.15555555555556,4.15833333333333,4.16111111111111,4.16388888888889,4.16666666666667,4.16944444444444,4.17222222222222,4.175,4.17777777777778,4.18055555555556,4.18333333333333,4.18611111111111,4.18888888888889,4.19166666666667,4.19444444444444,4.19722222222222,4.2,4.20277777777778,4.20555555555556,4.20833333333333,4.21111111111111,4.21388888888889,4.21666666666667,4.21944444444444,4.22222222222222,4.225,4.22777777777778,4.23055555555556,4.23333333333333,4.23611111111111,4.23888888888889,4.24166666666667,4.24444444444444,4.24722222222222,4.25,4.25277777777778,4.25555555555556,4.25833333333333,4.26111111111111,4.26388888888889,4.26666666666667,4.26944444444444,4.27222222222222,4.275,4.27777777777778,4.28055555555556,4.28333333333333,4.28611111111111,4.28888888888889,4.29166666666667,4.29444444444444,4.29722222222222,4.3,4.30277777777778,4.30555555555556,4.30833333333333,4.31111111111111,4.31388888888889,4.31666666666667,4.31944444444444,4.32222222222222,4.325,4.32777777777778,4.33055555555556,4.33333333333333,4.33611111111111,4.33888888888889,4.34166666666667,4.34444444444444,4.34722222222222,4.35,4.35277777777778,4.35555555555556,4.35833333333333,4.36111111111111,4.36388888888889,4.36666666666667,4.36944444444444,4.37222222222222,4.375,4.37777777777778,4.38055555555556,4.38333333333333,4.38611111111111,4.38888888888889,4.39166666666667,4.39444444444444,4.39722222222222,4.4,4.40277777777778,4.40555555555556,4.40833333333333,4.41111111111111,4.41388888888889,4.41666666666667,4.41944444444444,4.42222222222222,4.425,4.42777777777778,4.43055555555556,4.43333333333333,4.43611111111111,4.43888888888889,4.44166666666667,4.44444444444444,4.44722222222222,4.45,4.45277777777778,4.45555555555556,4.45833333333333,4.46111111111111,4.46388888888889,4.46666666666667,4.46944444444444,4.47222222222222,4.475,4.47777777777778,4.48055555555556,4.48333333333333,4.48611111111111,4.48888888888889,4.49166666666667,4.49444444444444,4.49722222222222,4.5,4.50277777777778,4.50555555555556,4.50833333333333,4.51111111111111,4.51388888888889,4.51666666666667,4.51944444444444,4.52222222222222,4.525,4.52777777777778,4.53055555555556,4.53333333333333,4.53611111111111,4.53888888888889,4.54166666666667,4.54444444444444,4.54722222222222,4.55,4.55277777777778,4.55555555555556,4.55833333333333,4.56111111111111,4.56388888888889,4.56666666666667,4.56944444444444,4.57222222222222,4.575,4.57777777777778,4.58055555555556,4.58333333333333,4.58611111111111,4.58888888888889,4.59166666666667,4.59444444444444,4.59722222222222,4.6,4.60277777777778,4.60555555555556,4.60833333333333,4.61111111111111,4.61388888888889,4.61666666666667,4.61944444444444,4.62222222222222,4.625,4.62777777777778,4.63055555555556,4.63333333333333,4.63611111111111,4.63888888888889,4.64166666666667,4.64444444444444,4.64722222222222,4.65,4.65277777777778,4.65555555555556,4.65833333333333,4.66111111111111,4.66388888888889,4.66666666666667,4.66944444444444,4.67222222222222,4.675,4.67777777777778,4.68055555555556,4.68333333333333,4.68611111111111,4.68888888888889,4.69166666666667,4.69444444444444,4.69722222222222,4.7,4.70277777777778,4.70555555555556,4.70833333333333,4.71111111111111,4.71388888888889,4.71666666666667,4.71944444444444,4.72222222222222,4.725,4.72777777777778,4.73055555555556,4.73333333333333,4.73611111111111,4.73888888888889,4.74166666666667,4.74444444444444,4.74722222222222,4.75,4.75277777777778,4.75555555555556,4.75833333333333,4.76111111111111,4.76388888888889,4.76666666666667,4.76944444444444,4.77222222222222,4.775,4.77777777777778,4.78055555555556,4.78333333333333,4.78611111111111,4.78888888888889,4.79166666666667,4.79444444444444,4.79722222222222,4.8,4.80277777777778,4.80555555555556,4.80833333333333,4.81111111111111,4.81388888888889,4.81666666666667,4.81944444444444,4.82222222222222,4.825,4.82777777777778,4.83055555555556,4.83333333333333,4.83611111111111,4.83888888888889,4.84166666666667,4.84444444444444,4.84722222222222,4.85,4.85277777777778,4.85555555555556,4.85833333333333,4.86111111111111,4.86388888888889,4.86666666666667,4.86944444444444,4.87222222222222,4.875,4.87777777777778,4.88055555555556,4.88333333333333,4.88611111111111,4.88888888888889,4.89166666666667,4.89444444444444,4.89722222222222,4.9,4.90277777777778,4.90555555555556,4.90833333333333,4.91111111111111,4.91388888888889,4.91666666666667,4.91944444444444,4.92222222222222,4.925,4.92777777777778,4.93055555555556,4.93333333333333,4.93611111111111,4.93888888888889,4.94166666666667,4.94444444444444,4.94722222222222,4.95,4.95277777777778,4.95555555555556,4.95833333333333,4.96111111111111,4.96388888888889,4.96666666666667,4.96944444444444,4.97222222222222,4.975,4.97777777777778,4.98055555555556,4.98333333333333,4.98611111111111,4.98888888888889,4.99166666666667,4.99444444444444,4.99722222222222,5,5.00277777777778,5.00555555555556,5.00833333333333,5.01111111111111,5.01388888888889,5.01666666666667,5.01944444444444,5.02222222222222,5.025,5.02777777777778,5.03055555555556,5.03333333333333,5.03611111111111,5.03888888888889,5.04166666666667,5.04444444444444,5.04722222222222,5.05,5.05277777777778,5.05555555555556,5.05833333333333,5.06111111111111,5.06388888888889,5.06666666666667,5.06944444444444,5.07222222222222,5.075,5.07777777777778,5.08055555555556,5.08333333333333,5.08611111111111,5.08888888888889,5.09166666666667,5.09444444444444,5.09722222222222,5.1,5.10277777777778,5.10555555555556,5.10833333333333,5.11111111111111,5.11388888888889,5.11666666666667,5.11944444444444,5.12222222222222,5.125,5.12777777777778,5.13055555555556,5.13333333333333,5.13611111111111,5.13888888888889,5.14166666666667,5.14444444444444,5.14722222222222,5.15,5.15277777777778,5.15555555555556,5.15833333333333,5.16111111111111,5.16388888888889,5.16666666666667,5.16944444444444,5.17222222222222,5.175,5.17777777777778,5.18055555555556,5.18333333333333,5.18611111111111,5.18888888888889,5.19166666666667,5.19444444444444,5.19722222222222,5.2,5.20277777777778,5.20555555555556,5.20833333333333,5.21111111111111,5.21388888888889,5.21666666666667,5.21944444444444,5.22222222222222,5.225,5.22777777777778,5.23055555555556,5.23333333333333,5.23611111111111,5.23888888888889,5.24166666666667,5.24444444444444,5.24722222222222,5.25,5.25277777777778,5.25555555555556,5.25833333333333,5.26111111111111,5.26388888888889,5.26666666666667,5.26944444444444,5.27222222222222,5.275,5.27777777777778,5.28055555555556,5.28333333333333,5.28611111111111,5.28888888888889,5.29166666666667,5.29444444444444,5.29722222222222,5.3,5.30277777777778,5.30555555555556,5.30833333333333,5.31111111111111,5.31388888888889,5.31666666666667,5.31944444444444,5.32222222222222,5.325,5.32777777777778,5.33055555555556,5.33333333333333,5.33611111111111,5.33888888888889,5.34166666666667,5.34444444444444,5.34722222222222,5.35,5.35277777777778,5.35555555555556,5.35833333333333,5.36111111111111,5.36388888888889,5.36666666666667,5.36944444444444,5.37222222222222,5.375,5.37777777777778,5.38055555555556,5.38333333333333,5.38611111111111,5.38888888888889,5.39166666666667,5.39444444444444,5.39722222222222,5.4,5.40277777777778,5.40555555555556,5.40833333333333,5.41111111111111,5.41388888888889,5.41666666666667,5.41944444444444,5.42222222222222,5.425,5.42777777777778,5.43055555555556,5.43333333333333,5.43611111111111,5.43888888888889,5.44166666666667,5.44444444444444,5.44722222222222,5.45,5.45277777777778,5.45555555555556,5.45833333333333,5.46111111111111,5.46388888888889,5.46666666666667,5.46944444444444,5.47222222222222,5.475,5.47777777777778,5.48055555555556,5.48333333333333,5.48611111111111,5.48888888888889,5.49166666666667,5.49444444444444,5.49722222222222,5.5,5.50277777777778,5.50555555555556,5.50833333333333,5.51111111111111,5.51388888888889,5.51666666666667,5.51944444444444,5.52222222222222,5.525,5.52777777777778,5.53055555555556,5.53333333333333,5.53611111111111,5.53888888888889,5.54166666666667,5.54444444444444,5.54722222222222,5.55,5.55277777777778,5.55555555555556,5.55833333333333,5.56111111111111,5.56388888888889,5.56666666666667,5.56944444444444,5.57222222222222,5.575,5.57777777777778,5.58055555555556,5.58333333333333,5.58611111111111,5.58888888888889,5.59166666666667,5.59444444444444,5.59722222222222,5.6,5.60277777777778,5.60555555555556,5.60833333333333,5.61111111111111,5.61388888888889,5.61666666666667,5.61944444444444,5.62222222222222,5.625,5.62777777777778,5.63055555555556,5.63333333333333,5.63611111111111,5.63888888888889,5.64166666666667,5.64444444444444,5.64722222222222,5.65,5.65277777777778,5.65555555555556,5.65833333333333,5.66111111111111,5.66388888888889,5.66666666666667,5.66944444444444,5.67222222222222,5.675,5.67777777777778,5.68055555555556,5.68333333333333,5.68611111111111,5.68888888888889,5.69166666666667,5.69444444444444,5.69722222222222,5.7,5.70277777777778,5.70555555555556,5.70833333333333,5.71111111111111,5.71388888888889,5.71666666666667,5.71944444444444,5.72222222222222,5.725,5.72777777777778,5.73055555555556,5.73333333333333,5.73611111111111,5.73888888888889,5.74166666666667,5.74444444444444,5.74722222222222,5.75,5.75277777777778,5.75555555555556,5.75833333333333,5.76111111111111,5.76388888888889,5.76666666666667,5.76944444444444,5.77222222222222,5.775,5.77777777777778,5.78055555555556,5.78333333333333,5.78611111111111,5.78888888888889,5.79166666666667,5.79444444444444,5.79722222222222,5.8,5.80277777777778,5.80555555555556,5.80833333333333,5.81111111111111,5.81388888888889,5.81666666666667,5.81944444444444,5.82222222222222,5.825,5.82777777777778,5.83055555555556,5.83333333333333,5.83611111111111,5.83888888888889,5.84166666666667,5.84444444444444,5.84722222222222,5.85,5.85277777777778,5.85555555555556,5.85833333333333,5.86111111111111,5.86388888888889,5.86666666666667,5.86944444444444,5.87222222222222,5.875,5.87777777777778,5.88055555555556,5.88333333333333,5.88611111111111,5.88888888888889,5.89166666666667,5.89444444444444,5.89722222222222,5.9,5.90277777777778,5.90555555555556,5.90833333333333,5.91111111111111,5.91388888888889,5.91666666666667,5.91944444444444,5.92222222222222,5.925,5.92777777777778,5.93055555555556,5.93333333333333,5.93611111111111,5.93888888888889,5.94166666666667,5.94444444444444,5.94722222222222,5.95,5.95277777777778,5.95555555555556,5.95833333333333,5.96111111111111,5.96388888888889,5.96666666666667,5.96944444444444,5.97222222222222,5.975,5.97777777777778,5.98055555555556,5.98333333333333,5.98611111111111,5.98888888888889,5.99166666666667,5.99444444444444,5.99722222222222,6,6.00277777777778,6.00555555555556,6.00833333333333,6.01111111111111,6.01388888888889,6.01666666666667,6.01944444444444,6.02222222222222,6.025,6.02777777777778,6.03055555555556,6.03333333333333,6.03611111111111,6.03888888888889,6.04166666666667,6.04444444444444,6.04722222222222,6.05,6.05277777777778,6.05555555555556,6.05833333333333,6.06111111111111,6.06388888888889,6.06666666666667,6.06944444444444,6.07222222222222,6.075,6.07777777777778,6.08055555555556,6.08333333333333,6.08611111111111,6.08888888888889,6.09166666666667,6.09444444444444,6.09722222222222,6.1,6.10277777777778,6.10555555555556,6.10833333333333,6.11111111111111,6.11388888888889,6.11666666666667,6.11944444444444,6.12222222222222,6.125,6.12777777777778,6.13055555555556,6.13333333333333,6.13611111111111,6.13888888888889,6.14166666666667,6.14444444444444,6.14722222222222,6.15,6.15277777777778,6.15555555555556,6.15833333333333,6.16111111111111,6.16388888888889,6.16666666666667,6.16944444444444,6.17222222222222,6.175,6.17777777777778,6.18055555555556,6.18333333333333,6.18611111111111,6.18888888888889,6.19166666666667,6.19444444444444,6.19722222222222,6.2,6.20277777777778,6.20555555555556,6.20833333333333,6.21111111111111,6.21388888888889,6.21666666666667,6.21944444444444,6.22222222222222,6.225,6.22777777777778,6.23055555555556,6.23333333333333,6.23611111111111,6.23888888888889,6.24166666666667,6.24444444444444,6.24722222222222,6.25,6.25277777777778,6.25555555555556,6.25833333333333,6.26111111111111,6.26388888888889,6.26666666666667,6.26944444444444,6.27222222222222,6.275,6.27777777777778,6.28055555555556,6.28333333333333,6.28611111111111,6.28888888888889,6.29166666666667,6.29444444444444,6.29722222222222,6.3,6.30277777777778,6.30555555555556,6.30833333333333,6.31111111111111,6.31388888888889,6.31666666666667,6.31944444444444,6.32222222222222,6.325,6.32777777777778,6.33055555555556,6.33333333333333,6.33611111111111,6.33888888888889,6.34166666666667,6.34444444444444,6.34722222222222,6.35,6.35277777777778,6.35555555555556,6.35833333333333,6.36111111111111,6.36388888888889,6.36666666666667,6.36944444444444,6.37222222222222,6.375,6.37777777777778,6.38055555555556,6.38333333333333,6.38611111111111,6.38888888888889,6.39166666666667,6.39444444444444,6.39722222222222,6.4,6.40277777777778,6.40555555555556,6.40833333333333,6.41111111111111,6.41388888888889,6.41666666666667,6.41944444444444,6.42222222222222,6.425,6.42777777777778,6.43055555555556,6.43333333333333,6.43611111111111,6.43888888888889,6.44166666666667,6.44444444444444,6.44722222222222,6.45,6.45277777777778,6.45555555555556,6.45833333333333,6.46111111111111,6.46388888888889,6.46666666666667,6.46944444444444,6.47222222222222,6.475,6.47777777777778,6.48055555555556,6.48333333333333,6.48611111111111,6.48888888888889,6.49166666666667,6.49444444444444,6.49722222222222,6.5,6.50277777777778,6.50555555555556,6.50833333333333,6.51111111111111,6.51388888888889,6.51666666666667,6.51944444444444,6.52222222222222,6.525,6.52777777777778,6.53055555555556,6.53333333333333,6.53611111111111,6.53888888888889,6.54166666666667,6.54444444444444,6.54722222222222,6.55,6.55277777777778,6.55555555555556,6.55833333333333,6.56111111111111,6.56388888888889,6.56666666666667,6.56944444444444,6.57222222222222,6.575,6.57777777777778,6.58055555555556,6.58333333333333,6.58611111111111,6.58888888888889,6.59166666666667,6.59444444444444,6.59722222222222,6.6,6.60277777777778,6.60555555555556,6.60833333333333,6.61111111111111,6.61388888888889,6.61666666666667,6.61944444444444,6.62222222222222,6.625,6.62777777777778,6.63055555555556,6.63333333333333,6.63611111111111,6.63888888888889,6.64166666666667,6.64444444444444,6.64722222222222,6.65,6.65277777777778,6.65555555555556,6.65833333333333,6.66111111111111,6.66388888888889,6.66666666666667,6.66944444444444,6.67222222222222,6.675,6.67777777777778,6.68055555555556,6.68333333333333,6.68611111111111,6.68888888888889,6.69166666666667,6.69444444444444,6.69722222222222,6.7,6.70277777777778,6.70555555555556,6.70833333333333,6.71111111111111,6.71388888888889,6.71666666666667,6.71944444444444,6.72222222222222,6.725,6.72777777777778,6.73055555555556,6.73333333333333,6.73611111111111,6.73888888888889,6.74166666666667,6.74444444444444,6.74722222222222,6.75,6.75277777777778,6.75555555555556,6.75833333333333,6.76111111111111,6.76388888888889,6.76666666666667,6.76944444444444,6.77222222222222,6.775,6.77777777777778,6.78055555555556,6.78333333333333,6.78611111111111,6.78888888888889,6.79166666666667,6.79444444444444,6.79722222222222,6.8,6.80277777777778,6.80555555555556,6.80833333333333,6.81111111111111,6.81388888888889,6.81666666666667,6.81944444444444,6.82222222222222,6.825,6.82777777777778,6.83055555555556,6.83333333333333,6.83611111111111,6.83888888888889,6.84166666666667,6.84444444444444,6.84722222222222,6.85,6.85277777777778,6.85555555555556,6.85833333333333,6.86111111111111,6.86388888888889,6.86666666666667,6.86944444444444,6.87222222222222,6.875,6.87777777777778,6.88055555555556,6.88333333333333,6.88611111111111,6.88888888888889,6.89166666666667,6.89444444444444,6.89722222222222,6.9,6.90277777777778,6.90555555555556,6.90833333333333,6.91111111111111,6.91388888888889,6.91666666666667,6.91944444444444,6.92222222222222,6.925,6.92777777777778,6.93055555555556,6.93333333333333,6.93611111111111,6.93888888888889,6.94166666666667,6.94444444444444,6.94722222222222,6.95,6.95277777777778,6.95555555555556,6.95833333333333,6.96111111111111,6.96388888888889,6.96666666666667,6.96944444444444,6.97222222222222,6.975,6.97777777777778,6.98055555555556,6.98333333333333,6.98611111111111,6.98888888888889,6.99166666666667,6.99444444444444,6.99722222222222,7,7.00277777777778,7.00555555555556,7.00833333333333,7.01111111111111,7.01388888888889,7.01666666666667,7.01944444444444,7.02222222222222,7.025,7.02777777777778,7.03055555555556,7.03333333333333,7.03611111111111,7.03888888888889,7.04166666666667,7.04444444444444,7.04722222222222,7.05,7.05277777777778,7.05555555555556,7.05833333333333,7.06111111111111,7.06388888888889,7.06666666666667,7.06944444444444,7.07222222222222,7.075,7.07777777777778,7.08055555555556,7.08333333333333,7.08611111111111,7.08888888888889,7.09166666666667,7.09444444444444,7.09722222222222,7.1,7.10277777777778,7.10555555555556,7.10833333333333,7.11111111111111,7.11388888888889,7.11666666666667,7.11944444444444,7.12222222222222,7.125,7.12777777777778,7.13055555555556,7.13333333333333,7.13611111111111,7.13888888888889,7.14166666666667,7.14444444444444,7.14722222222222,7.15,7.15277777777778,7.15555555555556,7.15833333333333,7.16111111111111,7.16388888888889,7.16666666666667,7.16944444444444,7.17222222222222,7.175,7.17777777777778,7.18055555555556,7.18333333333333,7.18611111111111,7.18888888888889,7.19166666666667,7.19444444444444,7.19722222222222,7.2,7.20277777777778,7.20555555555556,7.20833333333333,7.21111111111111,7.21388888888889,7.21666666666667,7.21944444444444,7.22222222222222,7.225,7.22777777777778,7.23055555555556,7.23333333333333,7.23611111111111,7.23888888888889,7.24166666666667,7.24444444444444,7.24722222222222,7.25,7.25277777777778,7.25555555555556,7.25833333333333,7.26111111111111,7.26388888888889,7.26666666666667,7.26944444444444,7.27222222222222,7.275,7.27777777777778,7.28055555555556,7.28333333333333,7.28611111111111,7.28888888888889,7.29166666666667,7.29444444444444,7.29722222222222,7.3,7.30277777777778,7.30555555555556,7.30833333333333,7.31111111111111,7.31388888888889,7.31666666666667,7.31944444444444,7.32222222222222,7.325,7.32777777777778,7.33055555555556,7.33333333333333,7.33611111111111,7.33888888888889,7.34166666666667,7.34444444444444,7.34722222222222,7.35,7.35277777777778,7.35555555555556,7.35833333333333,7.36111111111111,7.36388888888889,7.36666666666667,7.36944444444444,7.37222222222222,7.375,7.37777777777778,7.38055555555556,7.38333333333333,7.38611111111111,7.38888888888889,7.39166666666667,7.39444444444444,7.39722222222222,7.4,7.40277777777778,7.40555555555556,7.40833333333333,7.41111111111111,7.41388888888889,7.41666666666667,7.41944444444444,7.42222222222222,7.425,7.42777777777778,7.43055555555556,7.43333333333333,7.43611111111111,7.43888888888889,7.44166666666667,7.44444444444444,7.44722222222222,7.45,7.45277777777778,7.45555555555556,7.45833333333333,7.46111111111111,7.46388888888889,7.46666666666667,7.46944444444444,7.47222222222222,7.475,7.47777777777778,7.48055555555556,7.48333333333333,7.48611111111111,7.48888888888889,7.49166666666667,7.49444444444444,7.49722222222222,7.5,7.50277777777778,7.50555555555556,7.50833333333333,7.51111111111111,7.51388888888889,7.51666666666667,7.51944444444444,7.52222222222222,7.525,7.52777777777778,7.53055555555556,7.53333333333333,7.53611111111111,7.53888888888889,7.54166666666667,7.54444444444444,7.54722222222222,7.55,7.55277777777778,7.55555555555556,7.55833333333333,7.56111111111111,7.56388888888889,7.56666666666667,7.56944444444444,7.57222222222222,7.575,7.57777777777778,7.58055555555556,7.58333333333333,7.58611111111111,7.58888888888889,7.59166666666667,7.59444444444444,7.59722222222222,7.6,7.60277777777778,7.60555555555556,7.60833333333333,7.61111111111111,7.61388888888889,7.61666666666667,7.61944444444444,7.62222222222222,7.625,7.62777777777778,7.63055555555556,7.63333333333333,7.63611111111111,7.63888888888889,7.64166666666667,7.64444444444444,7.64722222222222,7.65,7.65277777777778,7.65555555555556,7.65833333333333,7.66111111111111,7.66388888888889,7.66666666666667,7.66944444444444,7.67222222222222,7.675,7.67777777777778,7.68055555555556,7.68333333333333,7.68611111111111,7.68888888888889,7.69166666666667,7.69444444444444,7.69722222222222,7.7,7.70277777777778,7.70555555555556,7.70833333333333,7.71111111111111,7.71388888888889,7.71666666666667,7.71944444444444,7.72222222222222,7.725,7.72777777777778,7.73055555555556,7.73333333333333,7.73611111111111,7.73888888888889,7.74166666666667,7.74444444444444,7.74722222222222,7.75,7.75277777777778,7.75555555555556,7.75833333333333,7.76111111111111,7.76388888888889,7.76666666666667,7.76944444444444,7.77222222222222,7.775,7.77777777777778,7.78055555555556,7.78333333333333,7.78611111111111,7.78888888888889,7.79166666666667,7.79444444444444,7.79722222222222,7.8,7.80277777777778,7.80555555555556,7.80833333333333,7.81111111111111,7.81388888888889,7.81666666666667,7.81944444444444,7.82222222222222,7.825,7.82777777777778,7.83055555555556,7.83333333333333,7.83611111111111,7.83888888888889,7.84166666666667,7.84444444444444,7.84722222222222,7.85,7.85277777777778,7.85555555555556,7.85833333333333,7.86111111111111,7.86388888888889,7.86666666666667,7.86944444444444,7.87222222222222,7.875,7.87777777777778,7.88055555555556,7.88333333333333,7.88611111111111,7.88888888888889,7.89166666666667,7.89444444444444,7.89722222222222,7.9,7.90277777777778,7.90555555555556,7.90833333333333,7.91111111111111,7.91388888888889,7.91666666666667,7.91944444444444,7.92222222222222,7.925,7.92777777777778,7.93055555555556,7.93333333333333,7.93611111111111,7.93888888888889,7.94166666666667,7.94444444444444,7.94722222222222,7.95,7.95277777777778,7.95555555555556,7.95833333333333,7.96111111111111,7.96388888888889,7.96666666666667,7.96944444444444,7.97222222222222,7.975,7.97777777777778,7.98055555555556,7.98333333333333,7.98611111111111,7.98888888888889,7.99166666666667,7.99444444444444,7.99722222222222,8,8.00277777777778,8.00555555555556,8.00833333333333,8.01111111111111,8.01388888888889,8.01666666666667,8.01944444444444,8.02222222222222,8.025,8.02777777777778,8.03055555555556,8.03333333333333,8.03611111111111,8.03888888888889,8.04166666666667,8.04444444444444,8.04722222222222,8.05,8.05277777777778,8.05555555555556,8.05833333333333,8.06111111111111,8.06388888888889,8.06666666666667,8.06944444444444,8.07222222222222,8.075,8.07777777777778,8.08055555555556,8.08333333333333,8.08611111111111,8.08888888888889,8.09166666666667,8.09444444444444,8.09722222222222,8.1,8.10277777777778,8.10555555555556,8.10833333333333,8.11111111111111,8.11388888888889,8.11666666666667,8.11944444444444,8.12222222222222,8.125,8.12777777777778,8.13055555555556,8.13333333333333,8.13611111111111,8.13888888888889,8.14166666666667,8.14444444444444,8.14722222222222,8.15,8.15277777777778,8.15555555555556,8.15833333333333,8.16111111111111,8.16388888888889,8.16666666666667,8.16944444444444,8.17222222222222,8.175,8.17777777777778,8.18055555555556,8.18333333333333,8.18611111111111,8.18888888888889,8.19166666666667,8.19444444444444,8.19722222222222,8.2,8.20277777777778,8.20555555555556,8.20833333333333,8.21111111111111,8.21388888888889,8.21666666666667,8.21944444444444,8.22222222222222,8.225,8.22777777777778,8.23055555555556,8.23333333333333,8.23611111111111,8.23888888888889,8.24166666666667,8.24444444444444,8.24722222222222,8.25,8.25277777777778,8.25555555555556,8.25833333333333,8.26111111111111,8.26388888888889,8.26666666666667,8.26944444444444,8.27222222222222,8.275,8.27777777777778,8.28055555555556,8.28333333333333,8.28611111111111,8.28888888888889,8.29166666666667,8.29444444444444,8.29722222222222,8.3,8.30277777777778,8.30555555555556,8.30833333333333,8.31111111111111,8.31388888888889,8.31666666666667,8.31944444444444,8.32222222222222,8.325,8.32777777777778,8.33055555555556,8.33333333333333,8.33611111111111,8.33888888888889,8.34166666666667,8.34444444444444,8.34722222222222,8.35,8.35277777777778,8.35555555555556,8.35833333333333,8.36111111111111,8.36388888888889,8.36666666666667,8.36944444444444,8.37222222222222,8.375,8.37777777777778,8.38055555555556,8.38333333333333,8.38611111111111,8.38888888888889,8.39166666666667,8.39444444444444,8.39722222222222,8.4,8.40277777777778,8.40555555555556,8.40833333333333,8.41111111111111,8.41388888888889,8.41666666666667,8.41944444444444,8.42222222222222,8.425,8.42777777777778,8.43055555555556,8.43333333333333,8.43611111111111,8.43888888888889,8.44166666666667,8.44444444444444,8.44722222222222,8.45,8.45277777777778,8.45555555555556,8.45833333333333,8.46111111111111,8.46388888888889,8.46666666666667,8.46944444444444,8.47222222222222,8.475,8.47777777777778,8.48055555555556,8.48333333333333,8.48611111111111,8.48888888888889,8.49166666666667,8.49444444444444,8.49722222222222,8.5,8.50277777777778,8.50555555555556,8.50833333333333,8.51111111111111,8.51388888888889,8.51666666666667,8.51944444444444,8.52222222222222,8.525,8.52777777777778,8.53055555555556,8.53333333333333,8.53611111111111,8.53888888888889,8.54166666666667,8.54444444444444,8.54722222222222,8.55,8.55277777777778,8.55555555555556,8.55833333333333,8.56111111111111,8.56388888888889,8.56666666666667,8.56944444444444,8.57222222222222,8.575,8.57777777777778,8.58055555555556,8.58333333333333,8.58611111111111,8.58888888888889,8.59166666666667,8.59444444444444,8.59722222222222,8.6,8.60277777777778,8.60555555555556,8.60833333333333,8.61111111111111,8.61388888888889,8.61666666666667,8.61944444444444,8.62222222222222,8.625,8.62777777777778,8.63055555555556,8.63333333333333,8.63611111111111,8.63888888888889,8.64166666666667,8.64444444444444,8.64722222222222,8.65,8.65277777777778,8.65555555555556,8.65833333333333,8.66111111111111,8.66388888888889,8.66666666666667,8.66944444444444,8.67222222222222,8.675,8.67777777777778,8.68055555555556,8.68333333333333,8.68611111111111,8.68888888888889,8.69166666666667,8.69444444444444,8.69722222222222,8.7,8.70277777777778,8.70555555555556,8.70833333333333,8.71111111111111,8.71388888888889,8.71666666666667,8.71944444444444,8.72222222222222,8.725,8.72777777777778,8.73055555555556,8.73333333333333,8.73611111111111,8.73888888888889,8.74166666666667,8.74444444444444,8.74722222222222,8.75,8.75277777777778,8.75555555555556,8.75833333333333,8.76111111111111,8.76388888888889,8.76666666666667,8.76944444444444,8.77222222222222,8.775,8.77777777777778,8.78055555555556,8.78333333333333,8.78611111111111,8.78888888888889,8.79166666666667,8.79444444444444,8.79722222222222,8.8,8.80277777777778,8.80555555555556,8.80833333333333,8.81111111111111,8.81388888888889,8.81666666666667,8.81944444444444,8.82222222222222,8.825,8.82777777777778,8.83055555555556,8.83333333333333,8.83611111111111,8.83888888888889,8.84166666666667,8.84444444444444,8.84722222222222,8.85,8.85277777777778,8.85555555555556,8.85833333333333,8.86111111111111,8.86388888888889,8.86666666666667,8.86944444444444,8.87222222222222,8.875,8.87777777777778,8.88055555555556,8.88333333333333,8.88611111111111,8.88888888888889,8.89166666666667,8.89444444444444,8.89722222222222,8.9,8.90277777777778,8.90555555555556,8.90833333333333,8.91111111111111,8.91388888888889,8.91666666666667,8.91944444444444,8.92222222222222,8.925,8.92777777777778,8.93055555555556,8.93333333333333,8.93611111111111,8.93888888888889,8.94166666666667,8.94444444444444,8.94722222222222,8.95,8.95277777777778,8.95555555555556,8.95833333333333,8.96111111111111,8.96388888888889,8.96666666666667,8.96944444444444,8.97222222222222,8.975,8.97777777777778,8.98055555555556,8.98333333333333,8.98611111111111,8.98888888888889,8.99166666666667,8.99444444444444,8.99722222222222,9,9.00277777777778,9.00555555555556,9.00833333333333,9.01111111111111,9.01388888888889,9.01666666666667,9.01944444444444,9.02222222222222,9.025,9.02777777777778,9.03055555555556,9.03333333333333,9.03611111111111,9.03888888888889,9.04166666666667,9.04444444444444,9.04722222222222,9.05,9.05277777777778,9.05555555555556,9.05833333333333,9.06111111111111,9.06388888888889,9.06666666666667,9.06944444444444,9.07222222222222,9.075,9.07777777777778,9.08055555555556,9.08333333333333,9.08611111111111,9.08888888888889,9.09166666666667,9.09444444444444,9.09722222222222,9.1,9.10277777777778,9.10555555555556,9.10833333333333,9.11111111111111,9.11388888888889,9.11666666666667,9.11944444444444,9.12222222222222,9.125,9.12777777777778,9.13055555555556,9.13333333333333,9.13611111111111,9.13888888888889,9.14166666666667,9.14444444444444,9.14722222222222,9.15,9.15277777777778,9.15555555555556,9.15833333333333,9.16111111111111,9.16388888888889,9.16666666666667,9.16944444444444,9.17222222222222,9.175,9.17777777777778,9.18055555555556,9.18333333333333,9.18611111111111,9.18888888888889,9.19166666666667,9.19444444444444,9.19722222222222,9.2,9.20277777777778,9.20555555555556,9.20833333333333,9.21111111111111,9.21388888888889,9.21666666666667,9.21944444444444,9.22222222222222,9.225,9.22777777777778,9.23055555555556,9.23333333333333,9.23611111111111,9.23888888888889,9.24166666666667,9.24444444444444,9.24722222222222,9.25,9.25277777777778,9.25555555555556,9.25833333333333,9.26111111111111,9.26388888888889,9.26666666666667,9.26944444444444,9.27222222222222,9.275,9.27777777777778,9.28055555555556,9.28333333333333,9.28611111111111,9.28888888888889,9.29166666666667,9.29444444444444,9.29722222222222,9.3,9.30277777777778,9.30555555555556,9.30833333333333,9.31111111111111,9.31388888888889,9.31666666666667,9.31944444444444,9.32222222222222,9.325,9.32777777777778,9.33055555555556,9.33333333333333,9.33611111111111,9.33888888888889,9.34166666666667,9.34444444444444,9.34722222222222,9.35,9.35277777777778,9.35555555555556,9.35833333333333,9.36111111111111,9.36388888888889,9.36666666666667,9.36944444444444,9.37222222222222,9.375,9.37777777777778,9.38055555555556,9.38333333333333,9.38611111111111,9.38888888888889,9.39166666666667,9.39444444444444,9.39722222222222,9.4,9.40277777777778,9.40555555555556,9.40833333333333,9.41111111111111,9.41388888888889,9.41666666666667,9.41944444444444,9.42222222222222,9.425,9.42777777777778,9.43055555555556,9.43333333333333,9.43611111111111,9.43888888888889,9.44166666666667,9.44444444444444,9.44722222222222,9.45,9.45277777777778,9.45555555555556,9.45833333333333,9.46111111111111,9.46388888888889,9.46666666666667,9.46944444444444,9.47222222222222,9.475,9.47777777777778,9.48055555555556,9.48333333333333,9.48611111111111,9.48888888888889,9.49166666666667,9.49444444444444,9.49722222222222,9.5,9.50277777777778,9.50555555555556,9.50833333333333,9.51111111111111,9.51388888888889,9.51666666666667,9.51944444444444,9.52222222222222,9.525,9.52777777777778,9.53055555555556,9.53333333333333,9.53611111111111,9.53888888888889,9.54166666666667,9.54444444444444,9.54722222222222,9.55,9.55277777777778,9.55555555555556,9.55833333333333,9.56111111111111,9.56388888888889,9.56666666666667,9.56944444444444,9.57222222222222,9.575,9.57777777777778,9.58055555555556,9.58333333333333,9.58611111111111,9.58888888888889,9.59166666666667,9.59444444444444,9.59722222222222,9.6,9.60277777777778,9.60555555555556,9.60833333333333,9.61111111111111,9.61388888888889,9.61666666666667,9.61944444444444,9.62222222222222,9.625,9.62777777777778,9.63055555555556,9.63333333333333,9.63611111111111,9.63888888888889,9.64166666666667,9.64444444444444,9.64722222222222,9.65,9.65277777777778,9.65555555555556,9.65833333333333,9.66111111111111,9.66388888888889,9.66666666666667,9.66944444444444,9.67222222222222,9.675,9.67777777777778,9.68055555555556,9.68333333333333,9.68611111111111,9.68888888888889,9.69166666666667,9.69444444444444,9.69722222222222,9.7,9.70277777777778,9.70555555555556,9.70833333333333,9.71111111111111,9.71388888888889,9.71666666666667,9.71944444444444,9.72222222222222,9.725,9.72777777777778,9.73055555555556,9.73333333333333,9.73611111111111,9.73888888888889,9.74166666666667,9.74444444444444,9.74722222222222,9.75,9.75277777777778,9.75555555555556,9.75833333333333,9.76111111111111,9.76388888888889,9.76666666666667,9.76944444444444,9.77222222222222,9.775,9.77777777777778,9.78055555555556,9.78333333333333,9.78611111111111,9.78888888888889,9.79166666666667,9.79444444444444,9.79722222222222,9.8,9.80277777777778,9.80555555555556,9.80833333333333,9.81111111111111,9.81388888888889,9.81666666666667,9.81944444444444,9.82222222222222,9.825,9.82777777777778,9.83055555555556,9.83333333333333,9.83611111111111,9.83888888888889,9.84166666666667,9.84444444444444,9.84722222222222,9.85,9.85277777777778,9.85555555555556,9.85833333333333,9.86111111111111,9.86388888888889,9.86666666666667,9.86944444444444,9.87222222222222,9.875,9.87777777777778,9.88055555555556,9.88333333333333,9.88611111111111,9.88888888888889,9.89166666666667,9.89444444444444,9.89722222222222,9.9,9.90277777777778,9.90555555555556,9.90833333333333,9.91111111111111,9.91388888888889,9.91666666666667,9.91944444444444,9.92222222222222,9.925,9.92777777777778,9.93055555555556,9.93333333333333,9.93611111111111,9.93888888888889,9.94166666666667,9.94444444444444,9.94722222222222,9.95,9.95277777777778,9.95555555555556,9.95833333333333,9.96111111111111,9.96388888888889,9.96666666666667,9.96944444444444,9.97222222222222,9.975,9.97777777777778,9.98055555555556,9.98333333333333,9.98611111111111,9.98888888888889,9.99166666666667,9.99444444444444,9.99722222222222
